-9.499000000000000499e-03
-9.596000000000000363e-03
-9.728999999999999801e-03
-9.726999999999999535e-03
-9.598999999999999894e-03
-9.530999999999999542e-03
-9.624999999999999875e-03
-9.776999999999999233e-03
-9.790999999999999356e-03
-9.643999999999999795e-03
-9.572999999999999912e-03
-9.667000000000000245e-03
-9.808000000000000745e-03
-9.801000000000000684e-03
-9.655000000000000387e-03
-9.586000000000000770e-03
-9.683999999999999900e-03
-9.820000000000000603e-03
-9.823999999999999400e-03
-9.683000000000000634e-03
-9.605000000000000690e-03
-9.700999999999999554e-03
-9.837000000000000258e-03
-9.827999999999999931e-03
-9.678000000000000838e-03
-9.608000000000000221e-03
-9.707000000000000350e-03
-9.842000000000000054e-03
-9.828999999999999196e-03
-9.683999999999999900e-03
-9.613000000000000017e-03
-9.702000000000000554e-03
-9.830000000000000196e-03
-9.825000000000000400e-03
-9.688999999999999696e-03
-9.608000000000000221e-03
-9.728999999999999801e-03
-9.931000000000000591e-03
-9.941000000000000184e-03
-9.705999999999999350e-03
-9.525000000000000480e-03
-9.476000000000000048e-03
-9.358999999999999264e-03
-9.044999999999999221e-03
-8.557999999999999635e-03
-8.162000000000000852e-03
-8.363999999999999907e-03
-8.911999999999999783e-03
-9.298000000000000709e-03
-9.447000000000000536e-03
-9.523000000000000215e-03
-9.634000000000000202e-03
-9.737000000000000863e-03
-9.716999999999999943e-03
-9.577000000000000443e-03
-9.513999999999999888e-03
-9.617999999999999813e-03
-9.759000000000000313e-03
-9.754000000000000517e-03
-9.622999999999999610e-03
-9.565000000000000585e-03
-9.657000000000000653e-03
-9.792999999999999622e-03
-9.789000000000000826e-03
-9.636999999999999733e-03
-9.565000000000000585e-03
-9.658999999999999184e-03
-9.785000000000000295e-03
-9.776999999999999233e-03
-9.634999999999999468e-03
-9.568000000000000116e-03
-9.657999999999999918e-03
-9.787000000000000560e-03
-9.782000000000000764e-03
-9.636000000000000468e-03
-9.568000000000000116e-03
-9.657000000000000653e-03
-9.775999999999999968e-03
-9.764000000000000110e-03
-9.625999999999999140e-03
-9.551999999999999727e-03
-9.646000000000000060e-03
-9.771999999999999437e-03
-9.754999999999999782e-03
-9.610000000000000486e-03
-9.537999999999999604e-03
-9.641000000000000264e-03
-9.773999999999999702e-03
-9.742999999999999924e-03
-9.591000000000000567e-03
-9.527000000000000746e-03
-9.617999999999999813e-03
-9.747999999999999721e-03
-9.728000000000000536e-03
-9.575000000000000178e-03
-9.506999999999999826e-03
-9.603999999999999690e-03
-9.731999999999999332e-03
-9.721000000000000474e-03
-9.568999999999999381e-03
-9.490999999999999437e-03
-9.577999999999999708e-03
-9.710999999999999147e-03
-9.681000000000000369e-03
-9.528999999999999276e-03
-9.459999999999999659e-03
-9.558999999999999789e-03
-9.681000000000000369e-03
-9.667999999999999511e-03
-9.527000000000000746e-03
-9.456000000000000863e-03
-9.546999999999999931e-03
-9.667000000000000245e-03
-9.645000000000000795e-03
-9.502999999999999295e-03
-9.426000000000000351e-03
-9.509999999999999357e-03
-9.622000000000000344e-03
-9.598999999999999894e-03
-9.457000000000000128e-03
-9.395999999999999838e-03
-9.480999999999999844e-03
-9.615000000000000283e-03
-9.608999999999999486e-03
-9.475000000000000783e-03
-9.409000000000000696e-03
-9.506999999999999826e-03
-9.655000000000000387e-03
-9.657000000000000653e-03
-9.525000000000000480e-03
-9.461000000000000659e-03
-9.561000000000000054e-03
-9.707000000000000350e-03
-9.716999999999999943e-03
-9.593000000000000832e-03
-9.530999999999999542e-03
-9.629000000000000406e-03
-9.759999999999999579e-03
-9.750999999999999251e-03
-9.610999999999999752e-03
-9.544999999999999665e-03
-9.643999999999999795e-03
-9.773000000000000437e-03
-9.769999999999999171e-03
-9.631000000000000671e-03
-9.567000000000000851e-03
-9.660999999999999449e-03
-9.794000000000000622e-03
-9.783999999999999295e-03
-9.645000000000000795e-03
-9.575999999999999443e-03
-9.653999999999999387e-03
-9.780999999999999764e-03
-9.766000000000000375e-03
-9.629999999999999671e-03
-9.561000000000000054e-03
-9.667999999999999511e-03
-9.801000000000000684e-03
-9.778999999999999498e-03
-9.643000000000000529e-03
-9.561000000000000054e-03
-9.657000000000000653e-03
-9.802999999999999214e-03
-9.790999999999999356e-03
-9.648999999999999591e-03
-9.572000000000000647e-03
-9.667999999999999511e-03
-9.790000000000000091e-03
-9.768999999999999906e-03
-9.620000000000000079e-03
-9.556999999999999523e-03
-9.665999999999999245e-03
-9.799999999999999684e-03
-9.773000000000000437e-03
-9.629000000000000406e-03
-9.565999999999999850e-03
-9.655999999999999653e-03
-9.783000000000000029e-03
-9.775999999999999968e-03
-9.632999999999999202e-03
-9.570999999999999647e-03
-9.667999999999999511e-03
-9.799000000000000418e-03
-9.785000000000000295e-03
-9.641999999999999529e-03
-9.579000000000000709e-03
-9.679000000000000103e-03
-9.797000000000000153e-03
-9.768999999999999906e-03
-9.619000000000000813e-03
-9.554999999999999258e-03
-9.681999999999999634e-03
-9.818999999999999603e-03
-9.809000000000000011e-03
-9.662999999999999715e-03
-9.577999999999999708e-03
-9.683999999999999900e-03
-9.806999999999999745e-03
-9.783000000000000029e-03
-9.636999999999999733e-03
-9.580999999999999239e-03
-9.681999999999999634e-03
-9.815000000000000807e-03
-9.790999999999999356e-03
-9.641000000000000264e-03
-9.577000000000000443e-03
-9.691999999999999227e-03
-9.839999999999999789e-03
-9.820000000000000603e-03
-9.662000000000000449e-03
-9.612000000000000752e-03
-9.707999999999999616e-03
-9.818000000000000338e-03
-9.776999999999999233e-03
-9.620000000000000079e-03
-9.558999999999999789e-03
-9.681000000000000369e-03
-9.808000000000000745e-03
-9.773000000000000437e-03
-9.624999999999999875e-03
-9.572999999999999912e-03
-9.683999999999999900e-03
-9.818000000000000338e-03
-9.797000000000000153e-03
-9.643999999999999795e-03
-9.589999999999999566e-03
-9.705000000000000085e-03
-9.834000000000000727e-03
-9.797999999999999418e-03
-9.636000000000000468e-03
-9.577999999999999708e-03
-9.672999999999999307e-03
-9.797000000000000153e-03
-9.787999999999999826e-03
-9.634000000000000202e-03
-9.561999999999999320e-03
-9.672000000000000042e-03
-9.806000000000000480e-03
-9.778999999999999498e-03
-9.638999999999999999e-03
-9.584999999999999770e-03
-9.688999999999999696e-03
-9.809999999999999276e-03
-9.775999999999999968e-03
-9.634000000000000202e-03
-9.577999999999999708e-03
-9.683000000000000634e-03
-9.832000000000000461e-03
-9.797999999999999418e-03
-9.636999999999999733e-03
-9.577000000000000443e-03
-9.676999999999999838e-03
-9.794000000000000622e-03
-9.773000000000000437e-03
-9.648999999999999591e-03
-9.598999999999999894e-03
-9.679999999999999369e-03
-9.787000000000000560e-03
-9.766999999999999640e-03
-9.624999999999999875e-03
-9.547999999999999196e-03
-9.624000000000000610e-03
-9.745000000000000190e-03
-9.726000000000000270e-03
-9.572000000000000647e-03
-9.516999999999999418e-03
-9.615000000000000283e-03
-9.721999999999999739e-03
-9.686999999999999431e-03
-9.527000000000000746e-03
-9.471999999999999517e-03
-9.586000000000000770e-03
-9.721999999999999739e-03
-9.723000000000000739e-03
-9.598999999999999894e-03
-9.544000000000000400e-03
-9.638000000000000733e-03
-9.764000000000000110e-03
-9.752000000000000252e-03
-9.624000000000000610e-03
-9.573999999999999178e-03
-9.684999999999999165e-03
-9.823000000000000134e-03
-9.787999999999999826e-03
-9.658999999999999184e-03
-9.622999999999999610e-03
-9.735000000000000597e-03
-9.844000000000000319e-03
-9.830999999999999461e-03
-9.683999999999999900e-03
-9.639999999999999264e-03
-9.719000000000000208e-03
-9.851000000000000381e-03
-9.820000000000000603e-03
-9.672999999999999307e-03
-9.610000000000000486e-03
-9.695000000000000492e-03
-9.837999999999999523e-03
-9.821999999999999134e-03
-9.664999999999999980e-03
-9.610000000000000486e-03
-9.735000000000000597e-03
-9.853000000000000647e-03
-9.863999999999999505e-03
-9.795999999999999153e-03
-9.726999999999999535e-03
-9.712000000000000147e-03
-9.672999999999999307e-03
-9.473000000000000517e-03
-9.065999999999999406e-03
-8.718000000000000055e-03
-8.529999999999999388e-03
-8.385999999999999358e-03
-8.524000000000000327e-03
-8.826000000000000512e-03
-9.159000000000000474e-03
-9.523999999999999480e-03
-9.759000000000000313e-03
-9.745000000000000190e-03
-9.575999999999999443e-03
-9.532999999999999807e-03
-9.662000000000000449e-03
-9.794000000000000622e-03
-9.763000000000000844e-03
-9.610000000000000486e-03
-9.556000000000000258e-03
-9.697000000000000758e-03
-9.809999999999999276e-03
-9.768000000000000640e-03
-9.636999999999999733e-03
-9.599999999999999159e-03
-9.695999999999999758e-03
-9.830000000000000196e-03
-9.797000000000000153e-03
-9.676999999999999838e-03
-9.631999999999999937e-03
-9.733000000000000332e-03
-9.827000000000000665e-03
-9.766999999999999640e-03
-9.627000000000000141e-03
-9.608999999999999486e-03
-9.716999999999999943e-03
-9.835999999999999258e-03
-9.802999999999999214e-03
-9.662999999999999715e-03
-9.598000000000000628e-03
-9.709999999999999881e-03
-9.815000000000000807e-03
-9.775000000000000702e-03
-9.625999999999999140e-03
-9.598000000000000628e-03
-9.723000000000000739e-03
-9.830999999999999461e-03
-9.787999999999999826e-03
-9.636000000000000468e-03
-9.582999999999999505e-03
-9.698000000000000023e-03
-9.799999999999999684e-03
-9.775000000000000702e-03
-9.634999999999999468e-03
-9.572999999999999912e-03
-9.648000000000000326e-03
-9.780999999999999764e-03
-9.766999999999999640e-03
-9.608000000000000221e-03
-9.563999999999999585e-03
-9.657999999999999918e-03
-9.738000000000000128e-03
-9.716000000000000678e-03
-9.591999999999999832e-03
-9.547999999999999196e-03
-9.638000000000000733e-03
-9.737000000000000863e-03
-9.695000000000000492e-03
-9.565999999999999850e-03
-9.513000000000000622e-03
-9.605000000000000690e-03
-9.719999999999999474e-03
-9.683000000000000634e-03
-9.537999999999999604e-03
-9.480999999999999844e-03
-9.594999999999999363e-03
-9.698000000000000023e-03
-9.655000000000000387e-03
-9.511999999999999622e-03
-9.452999999999999597e-03
-9.568999999999999381e-03
-9.695999999999999758e-03
-9.667999999999999511e-03
-9.497000000000000233e-03
-9.421999999999999820e-03
-9.544000000000000400e-03
-9.712000000000000147e-03
-9.707999999999999616e-03
-9.567000000000000851e-03
-9.525000000000000480e-03
-9.641999999999999529e-03
-9.783000000000000029e-03
-9.747999999999999721e-03
-9.605000000000000690e-03
-9.579000000000000709e-03
-9.724000000000000005e-03
-9.832999999999999727e-03
-9.780000000000000498e-03
-9.650999999999999857e-03
-9.622000000000000344e-03
-9.742000000000000659e-03
-9.860999999999999974e-03
-9.820999999999999869e-03
-9.657000000000000653e-03
-9.613000000000000017e-03
-9.752999999999999517e-03
-9.874000000000000832e-03
-9.834000000000000727e-03
-9.679000000000000103e-03
-9.624000000000000610e-03
-9.742000000000000659e-03
-9.877999999999999628e-03
-9.848000000000000850e-03
-9.681999999999999634e-03
-9.638000000000000733e-03
-9.757000000000000048e-03
-9.860999999999999974e-03
-9.813000000000000542e-03
-9.674000000000000307e-03
-9.643999999999999795e-03
-9.768000000000000640e-03
-9.882999999999999424e-03
-9.825999999999999665e-03
-9.686999999999999431e-03
-9.641000000000000264e-03
-9.759000000000000313e-03
-9.875000000000000097e-03
-9.841000000000000789e-03
-9.698000000000000023e-03
-9.646000000000000060e-03
-9.745999999999999455e-03
-9.861999999999999239e-03
-9.842999999999999319e-03
-9.707999999999999616e-03
-9.653999999999999387e-03
-9.754000000000000517e-03
-9.865000000000000505e-03
-9.839999999999999789e-03
-9.686999999999999431e-03
-9.638999999999999999e-03
-9.768999999999999906e-03
-9.898999999999999813e-03
-9.868000000000000035e-03
-9.714000000000000412e-03
-9.655999999999999653e-03
-9.764999999999999375e-03
-9.884999999999999690e-03
-9.853000000000000647e-03
-9.714000000000000412e-03
-9.669000000000000511e-03
-9.768000000000000640e-03
-9.879999999999999893e-03
-9.851000000000000381e-03
-9.702000000000000554e-03
-9.662000000000000449e-03
-9.773999999999999702e-03
-9.894999999999999282e-03
-9.851999999999999647e-03
-9.702000000000000554e-03
-9.653999999999999387e-03
-9.757999999999999313e-03
-9.898999999999999813e-03
-9.877000000000000363e-03
-9.724999999999999270e-03
-9.674999999999999573e-03
-9.783000000000000029e-03
-9.898000000000000548e-03
-9.863000000000000239e-03
-9.728999999999999801e-03
-9.688000000000000431e-03
-9.789000000000000826e-03
-9.889000000000000221e-03
-9.856000000000000177e-03
-9.712000000000000147e-03
-9.665999999999999245e-03
-9.790999999999999356e-03
-9.913999999999999202e-03
-9.882000000000000159e-03
-9.735000000000000597e-03
-9.683999999999999900e-03
-9.785999999999999560e-03
-9.908999999999999406e-03
-9.875999999999999363e-03
-9.724000000000000005e-03
-9.690000000000000696e-03
-9.799999999999999684e-03
-9.906999999999999140e-03
-9.877999999999999628e-03
-9.737000000000000863e-03
-9.681999999999999634e-03
-9.799000000000000418e-03
-9.919000000000000733e-03
-9.870000000000000301e-03
-9.726999999999999535e-03
-9.691999999999999227e-03
-9.792999999999999622e-03
-9.912999999999999937e-03
-9.877000000000000363e-03
-9.738000000000000128e-03
-9.697000000000000758e-03
-9.795999999999999153e-03
-9.910999999999999671e-03
-9.882999999999999424e-03
-9.740999999999999659e-03
-9.688000000000000431e-03
-9.799999999999999684e-03
-9.910999999999999671e-03
-9.867000000000000770e-03
-9.716999999999999943e-03
-9.657999999999999918e-03
-9.747999999999999721e-03
-9.851000000000000381e-03
-9.806000000000000480e-03
-9.664000000000000715e-03
-9.603000000000000425e-03
-9.686000000000000165e-03
-9.802999999999999214e-03
-9.773999999999999702e-03
-9.653999999999999387e-03
-9.615000000000000283e-03
-9.742000000000000659e-03
-9.860999999999999974e-03
-9.830000000000000196e-03
-9.686000000000000165e-03
-9.643999999999999795e-03
-9.757000000000000048e-03
-9.889000000000000221e-03
-9.860999999999999974e-03
-9.735000000000000597e-03
-9.698000000000000023e-03
-9.811999999999999542e-03
-9.941000000000000184e-03
-9.908999999999999406e-03
-9.775000000000000702e-03
-9.733999999999999597e-03
-9.830000000000000196e-03
-9.941999999999999449e-03
-9.910000000000000406e-03
-9.775999999999999968e-03
-9.740000000000000394e-03
-9.842000000000000054e-03
-9.953999999999999307e-03
-9.915999999999999467e-03
-9.785999999999999560e-03
-9.726999999999999535e-03
-9.821999999999999134e-03
-9.950000000000000511e-03
-9.910000000000000406e-03
-9.768000000000000640e-03
-9.738000000000000128e-03
-9.898000000000000548e-03
-1.006300000000000076e-02
-9.995000000000000412e-03
-9.728999999999999801e-03
-9.577000000000000443e-03
-9.504999999999999560e-03
-9.341999999999999610e-03
-8.982999999999999666e-03
-8.510000000000000203e-03
-8.250000000000000389e-03
-8.614999999999999394e-03
-9.185000000000000456e-03
-9.483999999999999375e-03
-9.582999999999999505e-03
-9.634999999999999468e-03
-9.731999999999999332e-03
-9.834000000000000727e-03
-9.815000000000000807e-03
-9.681000000000000369e-03
-9.646999999999999326e-03
-9.766999999999999640e-03
-9.889999999999999486e-03
-9.863000000000000239e-03
-9.714000000000000412e-03
-9.679999999999999369e-03
-9.799999999999999684e-03
-9.908000000000000140e-03
-9.854999999999999177e-03
-9.716000000000000678e-03
-9.669999999999999776e-03
-9.778000000000000233e-03
-9.894999999999999282e-03
-9.860000000000000708e-03
-9.714999999999999677e-03
-9.672999999999999307e-03
-9.783000000000000029e-03
-9.894000000000000017e-03
-9.849000000000000116e-03
-9.695999999999999758e-03
-9.653999999999999387e-03
-9.773999999999999702e-03
-9.882999999999999424e-03
-9.837999999999999523e-03
-9.695000000000000492e-03
-9.646999999999999326e-03
-9.766999999999999640e-03
-9.884999999999999690e-03
-9.837000000000000258e-03
-9.688000000000000431e-03
-9.648999999999999591e-03
-9.757999999999999313e-03
-9.868000000000000035e-03
-9.825000000000000400e-03
-9.672999999999999307e-03
-9.622999999999999610e-03
-9.735999999999999863e-03
-9.846999999999999850e-03
-9.801000000000000684e-03
-9.660999999999999449e-03
-9.613000000000000017e-03
-9.714000000000000412e-03
-9.825000000000000400e-03
-9.780999999999999764e-03
-9.634999999999999468e-03
-9.589000000000000301e-03
-9.683999999999999900e-03
-9.794999999999999887e-03
-9.749999999999999986e-03
-9.594999999999999363e-03
-9.542999999999999400e-03
-9.646000000000000060e-03
-9.759999999999999579e-03
-9.712999999999999412e-03
-9.565000000000000585e-03
-9.523999999999999480e-03
-9.639999999999999264e-03
-9.743999999999999190e-03
-9.690000000000000696e-03
-9.544999999999999665e-03
-9.492999999999999702e-03
-9.601000000000000159e-03
-9.709000000000000616e-03
-9.657999999999999918e-03
-9.511000000000000357e-03
-9.471000000000000252e-03
-9.589999999999999566e-03
-9.705999999999999350e-03
-9.662999999999999715e-03
-9.532000000000000542e-03
-9.497999999999999499e-03
-9.622000000000000344e-03
-9.752999999999999517e-03
-9.728000000000000536e-03
-9.596999999999999628e-03
-9.580999999999999239e-03
-9.704000000000000820e-03
-9.820999999999999869e-03
-9.787000000000000560e-03
-9.657000000000000653e-03
-9.632999999999999202e-03
-9.761999999999999844e-03
-9.877999999999999628e-03
-9.828999999999999196e-03
-9.688000000000000431e-03
-9.664000000000000715e-03
-9.780999999999999764e-03
-9.886000000000000690e-03
-9.846999999999999850e-03
-9.704000000000000820e-03
-9.664000000000000715e-03
-9.778000000000000233e-03
-9.896999999999999548e-03
-9.848000000000000850e-03
-9.709999999999999881e-03
-9.674000000000000307e-03
-9.775999999999999968e-03
-9.884000000000000424e-03
-9.846000000000000585e-03
-9.707000000000000350e-03
-9.671000000000000776e-03
-9.776999999999999233e-03
-9.884999999999999690e-03
-9.844999999999999585e-03
-9.709999999999999881e-03
-9.679999999999999369e-03
-9.795999999999999153e-03
-9.903999999999999609e-03
-9.856000000000000177e-03
-9.710999999999999147e-03
-9.676999999999999838e-03
-9.802999999999999214e-03
-9.913999999999999202e-03
-9.858999999999999708e-03
-9.719000000000000208e-03
-9.688000000000000431e-03
-9.809999999999999276e-03
-9.922999999999999529e-03
-9.874000000000000832e-03
-9.728999999999999801e-03
-9.686000000000000165e-03
-9.792999999999999622e-03
-9.905999999999999875e-03
-9.868000000000000035e-03
-9.733000000000000332e-03
-9.695999999999999758e-03
-9.813000000000000542e-03
-9.922000000000000264e-03
-9.865000000000000505e-03
-9.724999999999999270e-03
-9.695999999999999758e-03
-9.818999999999999603e-03
-9.933000000000000856e-03
-9.879999999999999893e-03
-9.730000000000000801e-03
-9.686999999999999431e-03
-9.804999999999999480e-03
-9.912000000000000671e-03
-9.860000000000000708e-03
-9.714999999999999677e-03
-9.693999999999999492e-03
-9.815000000000000807e-03
-9.924999999999999795e-03
-9.868000000000000035e-03
-9.728999999999999801e-03
-9.698000000000000023e-03
-9.820000000000000603e-03
-9.924999999999999795e-03
-9.868000000000000035e-03
-9.719999999999999474e-03
-9.691999999999999227e-03
-9.813000000000000542e-03
-9.920999999999999264e-03
-9.879000000000000628e-03
-9.735999999999999863e-03
-9.700999999999999554e-03
-9.816000000000000072e-03
-9.924999999999999795e-03
-9.879999999999999893e-03
-9.737000000000000863e-03
-9.704000000000000820e-03
-9.821999999999999134e-03
-9.927999999999999325e-03
-9.870000000000000301e-03
-9.728000000000000536e-03
-9.702000000000000554e-03
-9.818000000000000338e-03
-9.919999999999999998e-03
-9.870999999999999566e-03
-9.731999999999999332e-03
-9.707999999999999616e-03
-9.820999999999999869e-03
-9.920999999999999264e-03
-9.870000000000000301e-03
-9.728000000000000536e-03
-9.695999999999999758e-03
-9.816000000000000072e-03
-9.915999999999999467e-03
-9.868999999999999301e-03
-9.726999999999999535e-03
-9.695000000000000492e-03
-9.809999999999999276e-03
-9.915000000000000202e-03
-9.861999999999999239e-03
-9.726999999999999535e-03
-9.700000000000000289e-03
-9.816000000000000072e-03
-9.924000000000000529e-03
-9.868999999999999301e-03
-9.721999999999999739e-03
-9.693000000000000227e-03
-9.813999999999999807e-03
-9.919999999999999998e-03
-9.868999999999999301e-03
-9.726000000000000270e-03
-9.698999999999999289e-03
-9.813000000000000542e-03
-9.919000000000000733e-03
-9.863999999999999505e-03
-9.719000000000000208e-03
-9.686000000000000165e-03
-9.799999999999999684e-03
-9.915000000000000202e-03
-9.867000000000000770e-03
-9.716000000000000678e-03
-9.683999999999999900e-03
-9.804999999999999480e-03
-9.906999999999999140e-03
-9.858000000000000443e-03
-9.712000000000000147e-03
-9.679000000000000103e-03
-9.802999999999999214e-03
-9.912000000000000671e-03
-9.858999999999999708e-03
-9.716999999999999943e-03
-9.690000000000000696e-03
-9.811000000000000276e-03
-9.910999999999999671e-03
-9.851000000000000381e-03
-9.700999999999999554e-03
-9.671000000000000776e-03
-9.771000000000000171e-03
-9.860999999999999974e-03
-9.790000000000000091e-03
-9.643000000000000529e-03
-9.608000000000000221e-03
-9.731999999999999332e-03
-9.846999999999999850e-03
-9.790999999999999356e-03
-9.657000000000000653e-03
-9.641000000000000264e-03
-9.764999999999999375e-03
-9.875000000000000097e-03
-9.813999999999999807e-03
-9.679999999999999369e-03
-9.660000000000000184e-03
-9.797000000000000153e-03
-9.898000000000000548e-03
-9.830000000000000196e-03
-9.690999999999999961e-03
-9.674999999999999573e-03
-9.785999999999999560e-03
-9.900000000000000813e-03
-9.860000000000000708e-03
-9.723000000000000739e-03
-9.693999999999999492e-03
-9.806000000000000480e-03
-9.924000000000000529e-03
-9.875999999999999363e-03
-9.731000000000000066e-03
-9.691999999999999227e-03
-9.811999999999999542e-03
-9.915999999999999467e-03
-9.863000000000000239e-03
-9.721000000000000474e-03
-9.695000000000000492e-03
-9.813999999999999807e-03
-9.919000000000000733e-03
-9.860000000000000708e-03
-9.723000000000000739e-03
-9.716999999999999943e-03
-9.884999999999999690e-03
-1.003000000000000072e-02
-9.905000000000000610e-03
-9.662000000000000449e-03
-9.506000000000000560e-03
-9.412000000000000227e-03
-9.221000000000000030e-03
-8.854000000000000759e-03
-8.436000000000000790e-03
-8.401999999999999746e-03
-8.951000000000000623e-03
-9.454999999999999863e-03
-9.709999999999999881e-03
-9.658999999999999184e-03
-9.596000000000000363e-03
-9.684999999999999165e-03
-9.797000000000000153e-03
-9.757000000000000048e-03
-9.636000000000000468e-03
-9.620999999999999344e-03
-9.737000000000000863e-03
-9.846999999999999850e-03
-9.790999999999999356e-03
-9.657000000000000653e-03
-9.641999999999999529e-03
-9.766000000000000375e-03
-9.868000000000000035e-03
-9.802999999999999214e-03
-9.662999999999999715e-03
-9.646000000000000060e-03
-9.761999999999999844e-03
-9.854999999999999177e-03
-9.790999999999999356e-03
-9.650999999999999857e-03
-9.624000000000000610e-03
-9.742000000000000659e-03
-9.844000000000000319e-03
-9.771000000000000171e-03
-9.620999999999999344e-03
-9.608000000000000221e-03
-9.730000000000000801e-03
-9.830000000000000196e-03
-9.768000000000000640e-03
-9.631999999999999937e-03
-9.601000000000000159e-03
-9.707999999999999616e-03
-9.806999999999999745e-03
-9.750999999999999251e-03
-9.606999999999999221e-03
-9.582000000000000239e-03
-9.709000000000000616e-03
-9.811999999999999542e-03
-9.738000000000000128e-03
-9.594999999999999363e-03
-9.563999999999999585e-03
-9.690999999999999961e-03
-9.787000000000000560e-03
-9.714000000000000412e-03
-9.565999999999999850e-03
-9.542000000000000134e-03
-9.660999999999999449e-03
-9.757999999999999313e-03
-9.690000000000000696e-03
-9.532999999999999807e-03
-9.506999999999999826e-03
-9.625999999999999140e-03
-9.723000000000000739e-03
-9.653999999999999387e-03
-9.506000000000000560e-03
-9.476999999999999313e-03
-9.589999999999999566e-03
-9.693999999999999492e-03
-9.622999999999999610e-03
-9.461000000000000659e-03
-9.435999999999999943e-03
-9.553999999999999992e-03
-9.645000000000000795e-03
-9.573999999999999178e-03
-9.429999999999999147e-03
-9.402999999999999900e-03
-9.516999999999999418e-03
-9.615999999999999548e-03
-9.554999999999999258e-03
-9.403999999999999165e-03
-9.374999999999999653e-03
-9.509999999999999357e-03
-9.620000000000000079e-03
-9.563000000000000320e-03
-9.429999999999999147e-03
-9.421999999999999820e-03
-9.567000000000000851e-03
-9.683000000000000634e-03
-9.643000000000000529e-03
-9.527000000000000746e-03
-9.516999999999999418e-03
-9.650000000000000591e-03
-9.759000000000000313e-03
-9.712999999999999412e-03
-9.594000000000000097e-03
-9.579999999999999974e-03
-9.707000000000000350e-03
-9.809999999999999276e-03
-9.745999999999999455e-03
-9.608999999999999486e-03
-9.586000000000000770e-03
-9.716000000000000678e-03
-9.820000000000000603e-03
-9.763000000000000844e-03
-9.624000000000000610e-03
-9.594999999999999363e-03
-9.724000000000000005e-03
-9.830000000000000196e-03
-9.764999999999999375e-03
-9.615999999999999548e-03
-9.593000000000000832e-03
-9.717999999999999208e-03
-9.827000000000000665e-03
-9.759999999999999579e-03
-9.613000000000000017e-03
-9.587999999999999301e-03
-9.714000000000000412e-03
-9.823999999999999400e-03
-9.761999999999999844e-03
-9.615999999999999548e-03
-9.591000000000000567e-03
-9.714000000000000412e-03
-9.809999999999999276e-03
-9.747999999999999721e-03
-9.617000000000000548e-03
-9.587999999999999301e-03
-9.709000000000000616e-03
-9.818000000000000338e-03
-9.761999999999999844e-03
-9.622999999999999610e-03
-9.586000000000000770e-03
-9.695999999999999758e-03
-9.808000000000000745e-03
-9.752999999999999517e-03
-9.613999999999999282e-03
-9.587999999999999301e-03
-9.709999999999999881e-03
-9.813999999999999807e-03
-9.745000000000000190e-03
-9.598999999999999894e-03
-9.589999999999999566e-03
-9.728000000000000536e-03
-9.828999999999999196e-03
-9.757999999999999313e-03
-9.620999999999999344e-03
-9.605000000000000690e-03
-9.728999999999999801e-03
-9.825000000000000400e-03
-9.754000000000000517e-03
-9.620999999999999344e-03
-9.606999999999999221e-03
-9.728999999999999801e-03
-9.820999999999999869e-03
-9.756000000000000782e-03
-9.613999999999999282e-03
-9.598000000000000628e-03
-9.728000000000000536e-03
-9.834000000000000727e-03
-9.771000000000000171e-03
-9.624999999999999875e-03
-9.599999999999999159e-03
-9.724000000000000005e-03
-9.834999999999999992e-03
-9.773999999999999702e-03
-9.620999999999999344e-03
-9.593000000000000832e-03
-9.712000000000000147e-03
-9.818999999999999603e-03
-9.759999999999999579e-03
-9.620999999999999344e-03
-9.599999999999999159e-03
-9.716000000000000678e-03
-9.821999999999999134e-03
-9.761999999999999844e-03
-9.622000000000000344e-03
-9.603000000000000425e-03
-9.731999999999999332e-03
-9.839999999999999789e-03
-9.761999999999999844e-03
-9.617999999999999813e-03
-9.596000000000000363e-03
-9.721999999999999739e-03
-9.834000000000000727e-03
-9.769999999999999171e-03
-9.622999999999999610e-03
-9.603999999999999690e-03
-9.738999999999999393e-03
-9.839999999999999789e-03
-9.766999999999999640e-03
-9.629999999999999671e-03
-9.610999999999999752e-03
-9.726999999999999535e-03
-9.827000000000000665e-03
-9.771999999999999437e-03
-9.629999999999999671e-03
-9.605000000000000690e-03
-9.726999999999999535e-03
-9.834999999999999992e-03
-9.771000000000000171e-03
-9.629000000000000406e-03
-9.608999999999999486e-03
-9.738000000000000128e-03
-9.835999999999999258e-03
-9.766999999999999640e-03
-9.622000000000000344e-03
-9.599999999999999159e-03
-9.728999999999999801e-03
-9.830999999999999461e-03
-9.768999999999999906e-03
-9.627999999999999406e-03
-9.603999999999999690e-03
-9.724000000000000005e-03
-9.828999999999999196e-03
-9.764000000000000110e-03
-9.622000000000000344e-03
-9.605999999999999955e-03
-9.719999999999999474e-03
-9.821999999999999134e-03
-9.761999999999999844e-03
-9.622999999999999610e-03
-9.608999999999999486e-03
-9.731000000000000066e-03
-9.834000000000000727e-03
-9.768999999999999906e-03
-9.617999999999999813e-03
-9.603000000000000425e-03
-9.731000000000000066e-03
-9.834000000000000727e-03
-9.764000000000000110e-03
-9.624999999999999875e-03
-9.608000000000000221e-03
-9.730000000000000801e-03
-9.834000000000000727e-03
-9.764000000000000110e-03
-9.617000000000000548e-03
-9.603000000000000425e-03
-9.724999999999999270e-03
-9.802999999999999214e-03
-9.712999999999999412e-03
-9.579000000000000709e-03
-9.565999999999999850e-03
-9.678000000000000838e-03
-9.773999999999999702e-03
-9.707000000000000350e-03
-9.565999999999999850e-03
-9.558000000000000523e-03
-9.684999999999999165e-03
-9.789000000000000826e-03
-9.726000000000000270e-03
-9.587000000000000036e-03
-9.589000000000000301e-03
-9.740999999999999659e-03
-9.834000000000000727e-03
-9.747000000000000455e-03
-9.601000000000000159e-03
-9.589000000000000301e-03
-9.721000000000000474e-03
-9.823000000000000134e-03
-9.757999999999999313e-03
-9.620000000000000079e-03
-9.615000000000000283e-03
-9.738999999999999393e-03
-9.837000000000000258e-03
-9.766999999999999640e-03
-9.622999999999999610e-03
-9.610000000000000486e-03
-9.740000000000000394e-03
-9.844999999999999585e-03
-9.771999999999999437e-03
-9.627999999999999406e-03
-9.610000000000000486e-03
-9.728999999999999801e-03
-9.827999999999999931e-03
-9.761000000000000579e-03
-9.617999999999999813e-03
-9.610000000000000486e-03
-9.785999999999999560e-03
-9.955999999999999572e-03
-9.894000000000000017e-03
-9.662999999999999715e-03
-9.556999999999999523e-03
-9.523000000000000215e-03
-9.367999999999999591e-03
-8.963999999999999746e-03
-8.481999999999999956e-03
-8.229999999999999469e-03
-8.597999999999999740e-03
-9.140000000000000555e-03
-9.426999999999999616e-03
-9.539999999999999869e-03
-9.567000000000000851e-03
-9.648999999999999591e-03
-9.730000000000000801e-03
-9.671000000000000776e-03
-9.542000000000000134e-03
-9.539000000000000604e-03
-9.674000000000000307e-03
-9.778000000000000233e-03
-9.712000000000000147e-03
-9.572999999999999912e-03
-9.565000000000000585e-03
-9.702000000000000554e-03
-9.799999999999999684e-03
-9.726999999999999535e-03
-9.577999999999999708e-03
-9.563999999999999585e-03
-9.698000000000000023e-03
-9.783999999999999295e-03
-9.716999999999999943e-03
-9.580999999999999239e-03
-9.563999999999999585e-03
-9.686999999999999431e-03
-9.790999999999999356e-03
-9.719000000000000208e-03
-9.580999999999999239e-03
-9.570999999999999647e-03
-9.693000000000000227e-03
-9.778000000000000233e-03
-9.705999999999999350e-03
-9.568999999999999381e-03
-9.558000000000000523e-03
-9.681999999999999634e-03
-9.775000000000000702e-03
-9.707000000000000350e-03
-9.563999999999999585e-03
-9.551000000000000462e-03
-9.679999999999999369e-03
-9.775000000000000702e-03
-9.695999999999999758e-03
-9.558000000000000523e-03
-9.540999999999999134e-03
-9.662000000000000449e-03
-9.750999999999999251e-03
-9.686999999999999431e-03
-9.539000000000000604e-03
-9.509999999999999357e-03
-9.634000000000000202e-03
-9.724999999999999270e-03
-9.648000000000000326e-03
-9.509000000000000091e-03
-9.487999999999999906e-03
-9.608999999999999486e-03
-9.697000000000000758e-03
-9.627999999999999406e-03
-9.485000000000000375e-03
-9.454999999999999863e-03
-9.573999999999999178e-03
-9.669999999999999776e-03
-9.587999999999999301e-03
-9.440999999999999739e-03
-9.421999999999999820e-03
-9.539999999999999869e-03
-9.632999999999999202e-03
-9.549999999999999462e-03
-9.397000000000000838e-03
-9.383000000000000715e-03
-9.506999999999999826e-03
-9.596999999999999628e-03
-9.520000000000000684e-03
-9.372999999999999388e-03
-9.360999999999999530e-03
-9.497999999999999499e-03
-9.598999999999999894e-03
-9.527000000000000746e-03
-9.391000000000000042e-03
-9.397000000000000838e-03
-9.540999999999999134e-03
-9.652000000000000857e-03
-9.589999999999999566e-03
-9.452999999999999597e-03
-9.459000000000000394e-03
-9.603000000000000425e-03
-9.709000000000000616e-03
-9.648999999999999591e-03
-9.520999999999999949e-03
-9.521999999999999215e-03
-9.657999999999999918e-03
-9.761999999999999844e-03
-9.695999999999999758e-03
-9.572000000000000647e-03
-9.561999999999999320e-03
-9.688999999999999696e-03
-9.783000000000000029e-03
-9.705000000000000085e-03
-9.577000000000000443e-03
-9.568999999999999381e-03
-9.690999999999999961e-03
-9.794000000000000622e-03
-9.719000000000000208e-03
-9.572999999999999912e-03
-9.563000000000000320e-03
-9.693000000000000227e-03
-9.778999999999999498e-03
-9.704000000000000820e-03
-9.568999999999999381e-03
-9.561999999999999320e-03
-9.686999999999999431e-03
-9.778000000000000233e-03
-9.707999999999999616e-03
-9.570000000000000381e-03
-9.554999999999999258e-03
-9.683000000000000634e-03
-9.780999999999999764e-03
-9.702999999999999819e-03
-9.558999999999999789e-03
-9.561000000000000054e-03
-9.700000000000000289e-03
-9.790000000000000091e-03
-9.710999999999999147e-03
-9.568000000000000116e-03
-9.567000000000000851e-03
-9.690000000000000696e-03
-9.782000000000000764e-03
-9.712000000000000147e-03
-9.575000000000000178e-03
-9.553000000000000727e-03
-9.690999999999999961e-03
-9.799000000000000418e-03
-9.719000000000000208e-03
-9.577999999999999708e-03
-9.568000000000000116e-03
-9.700000000000000289e-03
-9.794000000000000622e-03
-9.719000000000000208e-03
-9.579000000000000709e-03
-9.575999999999999443e-03
-9.700000000000000289e-03
-9.783000000000000029e-03
-9.710999999999999147e-03
-9.580999999999999239e-03
-9.570000000000000381e-03
-9.697000000000000758e-03
-9.787000000000000560e-03
-9.719000000000000208e-03
-9.591000000000000567e-03
-9.582000000000000239e-03
-9.716999999999999943e-03
-9.813000000000000542e-03
-9.733000000000000332e-03
-9.587000000000000036e-03
-9.582999999999999505e-03
-9.719000000000000208e-03
-9.804000000000000214e-03
-9.719999999999999474e-03
-9.589000000000000301e-03
-9.580999999999999239e-03
-9.707999999999999616e-03
-9.801999999999999949e-03
-9.721000000000000474e-03
-9.582999999999999505e-03
-9.575999999999999443e-03
-9.700999999999999554e-03
-9.792000000000000356e-03
-9.726000000000000270e-03
-9.594999999999999363e-03
-9.587999999999999301e-03
-9.712999999999999412e-03
-9.809999999999999276e-03
-9.730000000000000801e-03
-9.596999999999999628e-03
-9.591000000000000567e-03
-9.714999999999999677e-03
-9.818000000000000338e-03
-9.740000000000000394e-03
-9.594999999999999363e-03
-9.584999999999999770e-03
-9.709000000000000616e-03
-9.806999999999999745e-03
-9.733000000000000332e-03
-9.589000000000000301e-03
-9.589000000000000301e-03
-9.726000000000000270e-03
-9.818000000000000338e-03
-9.731999999999999332e-03
-9.591999999999999832e-03
-9.589000000000000301e-03
-9.724000000000000005e-03
-9.802999999999999214e-03
-9.721000000000000474e-03
-9.587999999999999301e-03
-9.584999999999999770e-03
-9.712000000000000147e-03
-9.799999999999999684e-03
-9.726999999999999535e-03
-9.591000000000000567e-03
-9.589000000000000301e-03
-9.716999999999999943e-03
-9.809999999999999276e-03
-9.735000000000000597e-03
-9.586000000000000770e-03
-9.573999999999999178e-03
-9.710999999999999147e-03
-9.809000000000000011e-03
-9.733000000000000332e-03
-9.591000000000000567e-03
-9.580999999999999239e-03
-9.707999999999999616e-03
-9.801000000000000684e-03
-9.728999999999999801e-03
-9.594999999999999363e-03
-9.587999999999999301e-03
-9.716000000000000678e-03
-9.815000000000000807e-03
-9.735999999999999863e-03
-9.589999999999999566e-03
-9.594000000000000097e-03
-9.731000000000000066e-03
-9.820000000000000603e-03
-9.743999999999999190e-03
-9.603999999999999690e-03
-9.598000000000000628e-03
-9.724999999999999270e-03
-9.818999999999999603e-03
-9.728000000000000536e-03
-9.582000000000000239e-03
-9.561999999999999320e-03
-9.686000000000000165e-03
-9.773000000000000437e-03
-9.697000000000000758e-03
-9.560000000000000789e-03
-9.542000000000000134e-03
-9.674000000000000307e-03
-9.768999999999999906e-03
-9.672999999999999307e-03
-9.542000000000000134e-03
-9.556999999999999523e-03
-9.695000000000000492e-03
-9.787999999999999826e-03
-9.714000000000000412e-03
-9.589000000000000301e-03
-9.593000000000000832e-03
-9.719000000000000208e-03
-9.809999999999999276e-03
-9.731999999999999332e-03
-9.598000000000000628e-03
-9.598999999999999894e-03
-9.735000000000000597e-03
-9.825000000000000400e-03
-9.742000000000000659e-03
-9.613999999999999282e-03
-9.619000000000000813e-03
-9.745999999999999455e-03
-9.841000000000000789e-03
-9.764000000000000110e-03
-9.624000000000000610e-03
-9.622999999999999610e-03
-9.750999999999999251e-03
-9.839999999999999789e-03
-9.766000000000000375e-03
-9.622999999999999610e-03
-9.619000000000000813e-03
-9.749000000000000721e-03
-9.835999999999999258e-03
-9.759000000000000313e-03
-9.641000000000000264e-03
-9.660999999999999449e-03
-9.858000000000000443e-03
-9.981999999999999554e-03
-9.816999999999999338e-03
-9.587000000000000036e-03
-9.462999999999999190e-03
-9.353999999999999468e-03
-9.116000000000000839e-03
-8.678999999999999215e-03
-8.207000000000000753e-03
-8.255999999999999450e-03
-8.828000000000000777e-03
-9.313999999999999363e-03
-9.553999999999999992e-03
-9.587000000000000036e-03
-9.584999999999999770e-03
-9.678000000000000838e-03
-9.752999999999999517e-03
-9.672999999999999307e-03
-9.553000000000000727e-03
-9.570000000000000381e-03
-9.707999999999999616e-03
-9.806000000000000480e-03
-9.726000000000000270e-03
-9.584000000000000505e-03
-9.586000000000000770e-03
-9.719999999999999474e-03
-9.806999999999999745e-03
-9.730000000000000801e-03
-9.589000000000000301e-03
-9.589999999999999566e-03
-9.724000000000000005e-03
-9.820999999999999869e-03
-9.745999999999999455e-03
-9.608000000000000221e-03
-9.601999999999999424e-03
-9.740999999999999659e-03
-9.834000000000000727e-03
-9.749000000000000721e-03
-9.599999999999999159e-03
-9.599999999999999159e-03
-9.726000000000000270e-03
-9.816999999999999338e-03
-9.726999999999999535e-03
-9.584000000000000505e-03
-9.577999999999999708e-03
-9.714000000000000412e-03
-9.815000000000000807e-03
-9.745999999999999455e-03
-9.598999999999999894e-03
-9.593000000000000832e-03
-9.738000000000000128e-03
-9.830000000000000196e-03
-9.726000000000000270e-03
-9.577999999999999708e-03
-9.579000000000000709e-03
-9.723000000000000739e-03
-9.804000000000000214e-03
-9.702999999999999819e-03
-9.553000000000000727e-03
-9.546000000000000665e-03
-9.655000000000000387e-03
-9.752000000000000252e-03
-9.674999999999999573e-03
-9.544999999999999665e-03
-9.537000000000000338e-03
-9.657999999999999918e-03
-9.726000000000000270e-03
-9.636000000000000468e-03
-9.499000000000000499e-03
-9.499000000000000499e-03
-9.631000000000000671e-03
-9.721000000000000474e-03
-9.622999999999999610e-03
-9.475000000000000783e-03
-9.459000000000000394e-03
-9.594999999999999363e-03
-9.690999999999999961e-03
-9.591000000000000567e-03
-9.447999999999999801e-03
-9.449000000000000801e-03
-9.565000000000000585e-03
-9.645000000000000795e-03
-9.577000000000000443e-03
-9.438999999999999474e-03
-9.426999999999999616e-03
-9.558000000000000523e-03
-9.648999999999999591e-03
-9.575000000000000178e-03
-9.438999999999999474e-03
-9.457999999999999394e-03
-9.610000000000000486e-03
-9.716999999999999943e-03
-9.643999999999999795e-03
-9.521999999999999215e-03
-9.542000000000000134e-03
-9.695000000000000492e-03
-9.789000000000000826e-03
-9.702000000000000554e-03
-9.558000000000000523e-03
-9.561999999999999320e-03
-9.695000000000000492e-03
-9.797999999999999418e-03
-9.733999999999999597e-03
-9.608999999999999486e-03
-9.606999999999999221e-03
-9.743999999999999190e-03
-9.832999999999999727e-03
-9.742000000000000659e-03
-9.613000000000000017e-03
-9.636000000000000468e-03
-9.766000000000000375e-03
-9.844999999999999585e-03
-9.764000000000000110e-03
-9.622999999999999610e-03
-9.622000000000000344e-03
-9.740000000000000394e-03
-9.818000000000000338e-03
-9.740999999999999659e-03
-9.612000000000000752e-03
-9.603999999999999690e-03
-9.752000000000000252e-03
-9.842999999999999319e-03
-9.737000000000000863e-03
-9.603999999999999690e-03
-9.617000000000000548e-03
-9.728999999999999801e-03
-9.818999999999999603e-03
-9.737000000000000863e-03
-9.601999999999999424e-03
-9.605999999999999955e-03
-9.756000000000000782e-03
-9.841000000000000789e-03
-9.735000000000000597e-03
-9.612000000000000752e-03
-9.620999999999999344e-03
-9.750999999999999251e-03
-9.820000000000000603e-03
-9.735000000000000597e-03
-9.605999999999999955e-03
-9.617999999999999813e-03
-9.759000000000000313e-03
-9.839000000000000523e-03
-9.752000000000000252e-03
-9.629999999999999671e-03
-9.643999999999999795e-03
-9.780999999999999764e-03
-9.861999999999999239e-03
-9.768999999999999906e-03
-9.622000000000000344e-03
-9.613000000000000017e-03
-9.750999999999999251e-03
-9.835999999999999258e-03
-9.733999999999999597e-03
-9.615999999999999548e-03
-9.629000000000000406e-03
-9.752999999999999517e-03
-9.849999999999999381e-03
-9.768999999999999906e-03
-9.643000000000000529e-03
-9.645000000000000795e-03
-9.750999999999999251e-03
-9.834999999999999992e-03
-9.756000000000000782e-03
-9.613999999999999282e-03
-9.631999999999999937e-03
-9.761000000000000579e-03
-9.837000000000000258e-03
-9.743999999999999190e-03
-9.615000000000000283e-03
-9.631000000000000671e-03
-9.771000000000000171e-03
-9.841000000000000789e-03
-9.749999999999999986e-03
-9.603000000000000425e-03
-9.631999999999999937e-03
-9.771000000000000171e-03
-9.842000000000000054e-03
-9.745000000000000190e-03
-9.615000000000000283e-03
-9.632999999999999202e-03
-9.763000000000000844e-03
-9.844999999999999585e-03
-9.761999999999999844e-03
-9.627000000000000141e-03
-9.627999999999999406e-03
-9.768000000000000640e-03
-9.832000000000000461e-03
-9.721000000000000474e-03
-9.598999999999999894e-03
-9.627999999999999406e-03
-9.771000000000000171e-03
-9.846999999999999850e-03
-9.754999999999999782e-03
-9.601999999999999424e-03
-9.598999999999999894e-03
-9.738000000000000128e-03
-9.809999999999999276e-03
-9.707999999999999616e-03
-9.570999999999999647e-03
-9.563999999999999585e-03
-9.683000000000000634e-03
-9.761999999999999844e-03
-9.655999999999999653e-03
-9.502000000000000030e-03
-9.494999999999999968e-03
-9.638999999999999999e-03
-9.738000000000000128e-03
-9.641999999999999529e-03
-9.509000000000000091e-03
-9.532000000000000542e-03
-9.688999999999999696e-03
-9.806000000000000480e-03
-9.705000000000000085e-03
-9.561000000000000054e-03
-9.570999999999999647e-03
-9.735999999999999863e-03
-9.802999999999999214e-03
-9.719999999999999474e-03
-9.603999999999999690e-03
-9.587999999999999301e-03
-9.728000000000000536e-03
-9.846000000000000585e-03
-9.752000000000000252e-03
-9.593000000000000832e-03
-9.624999999999999875e-03
-9.801000000000000684e-03
-9.882999999999999424e-03
-9.763000000000000844e-03
-9.624999999999999875e-03
-9.660999999999999449e-03
-9.797999999999999418e-03
-9.830000000000000196e-03
-9.726000000000000270e-03
-9.625999999999999140e-03
-9.660999999999999449e-03
-9.768000000000000640e-03
-9.827999999999999931e-03
-9.754999999999999782e-03
-9.624000000000000610e-03
-9.650000000000000591e-03
-9.841000000000000789e-03
-9.910000000000000406e-03
-9.709000000000000616e-03
-9.438000000000000209e-03
-9.286000000000000851e-03
-9.195999999999999314e-03
-8.982999999999999666e-03
-8.566000000000000697e-03
-8.148000000000000728e-03
-8.311000000000000679e-03
-8.878000000000000475e-03
-9.348000000000000406e-03
-9.495999999999999233e-03
-9.506999999999999826e-03
-9.523000000000000215e-03
-9.631000000000000671e-03
-9.721000000000000474e-03
-9.617999999999999813e-03
-9.506000000000000560e-03
-9.537000000000000338e-03
-9.676000000000000573e-03
-9.723000000000000739e-03
-9.622999999999999610e-03
-9.532000000000000542e-03
-9.549000000000000196e-03
-9.676999999999999838e-03
-9.780000000000000498e-03
-9.681999999999999634e-03
-9.537000000000000338e-03
-9.551999999999999727e-03
-9.669000000000000511e-03
-9.743999999999999190e-03
-9.669999999999999776e-03
-9.544000000000000400e-03
-9.534000000000000807e-03
-9.667000000000000245e-03
-9.716999999999999943e-03
-9.627999999999999406e-03
-9.523999999999999480e-03
-9.523999999999999480e-03
-9.639999999999999264e-03
-9.738999999999999393e-03
-9.655000000000000387e-03
-9.518000000000000418e-03
-9.537000000000000338e-03
-9.662999999999999715e-03
-9.743999999999999190e-03
-9.625999999999999140e-03
-9.485000000000000375e-03
-9.525999999999999746e-03
-9.657999999999999918e-03
-9.726000000000000270e-03
-9.606999999999999221e-03
-9.492999999999999702e-03
-9.520000000000000684e-03
-9.627999999999999406e-03
-9.688999999999999696e-03
-9.596999999999999628e-03
-9.459999999999999659e-03
-9.487999999999999906e-03
-9.617000000000000548e-03
-9.665999999999999245e-03
-9.582999999999999505e-03
-9.435999999999999943e-03
-9.440000000000000474e-03
-9.580999999999999239e-03
-9.667999999999999511e-03
-9.572000000000000647e-03
-9.445000000000000270e-03
-9.457999999999999394e-03
-9.584999999999999770e-03
-9.650999999999999857e-03
-9.561999999999999320e-03
-9.379999999999999449e-03
-9.372999999999999388e-03
-9.535000000000000073e-03
-9.646000000000000060e-03
-9.546000000000000665e-03
-9.360000000000000264e-03
-9.398000000000000104e-03
-9.530999999999999542e-03
-9.584999999999999770e-03
-9.499999999999999764e-03
-9.384999999999999246e-03
-9.388000000000000511e-03
-9.568999999999999381e-03
-9.634999999999999468e-03
-9.556000000000000258e-03
-9.428999999999999881e-03
-9.421999999999999820e-03
-9.570999999999999647e-03
-9.676999999999999838e-03
-9.591000000000000567e-03
-9.443000000000000005e-03
-9.442000000000000740e-03
-9.598000000000000628e-03
-9.719999999999999474e-03
-9.646000000000000060e-03
-9.504999999999999560e-03
-9.509999999999999357e-03
-9.676999999999999838e-03
-9.761000000000000579e-03
-9.671000000000000776e-03
-9.516999999999999418e-03
-9.506999999999999826e-03
-9.653000000000000122e-03
-9.724000000000000005e-03
-9.638000000000000733e-03
-9.511000000000000357e-03
-9.525000000000000480e-03
-9.652000000000000857e-03
-9.714999999999999677e-03
-9.615999999999999548e-03
-9.492999999999999702e-03
-9.506999999999999826e-03
-9.650000000000000591e-03
-9.740000000000000394e-03
-9.638000000000000733e-03
-9.502999999999999295e-03
-9.530000000000000276e-03
-9.672999999999999307e-03
-9.754999999999999782e-03
-9.650999999999999857e-03
-9.504000000000000295e-03
-9.504000000000000295e-03
-9.636999999999999733e-03
-9.733999999999999597e-03
-9.606999999999999221e-03
-9.494000000000000702e-03
-9.537000000000000338e-03
-9.660000000000000184e-03
-9.717999999999999208e-03
-9.620000000000000079e-03
-9.494999999999999968e-03
-9.532999999999999807e-03
-9.691999999999999227e-03
-9.754999999999999782e-03
-9.653999999999999387e-03
-9.499999999999999764e-03
-9.523999999999999480e-03
-9.667000000000000245e-03
-9.745000000000000190e-03
-9.672999999999999307e-03
-9.535999999999999338e-03
-9.532999999999999807e-03
-9.657000000000000653e-03
-9.756000000000000782e-03
-9.681000000000000369e-03
-9.532999999999999807e-03
-9.554999999999999258e-03
-9.683000000000000634e-03
-9.750999999999999251e-03
-9.676000000000000573e-03
-9.513000000000000622e-03
-9.487999999999999906e-03
-9.653999999999999387e-03
-9.783999999999999295e-03
-9.693000000000000227e-03
-9.540999999999999134e-03
-9.554999999999999258e-03
-9.707999999999999616e-03
-9.756000000000000782e-03
-9.646000000000000060e-03
-9.513000000000000622e-03
-9.532999999999999807e-03
-9.688999999999999696e-03
-9.775999999999999968e-03
-9.693000000000000227e-03
-9.546999999999999931e-03
-9.537999999999999604e-03
-9.667999999999999511e-03
-9.749999999999999986e-03
-9.681000000000000369e-03
-9.535999999999999338e-03
-9.556999999999999523e-03
-9.693000000000000227e-03
-9.749999999999999986e-03
-9.655999999999999653e-03
-9.528000000000000011e-03
-9.542999999999999400e-03
-9.657000000000000653e-03
-9.697000000000000758e-03
-9.587999999999999301e-03
-9.461000000000000659e-03
-9.487000000000000641e-03
-9.620999999999999344e-03
-9.671000000000000776e-03
-9.544999999999999665e-03
-9.405999999999999431e-03
-9.405999999999999431e-03
-9.546000000000000665e-03
-9.638000000000000733e-03
-9.535000000000000073e-03
-9.412999999999999493e-03
-9.421999999999999820e-03
-9.577999999999999708e-03
-9.683000000000000634e-03
-9.586000000000000770e-03
-9.471999999999999517e-03
-9.525999999999999746e-03
-9.690999999999999961e-03
-9.776999999999999233e-03
-9.700999999999999554e-03
-9.575000000000000178e-03
-9.579000000000000709e-03
-9.742000000000000659e-03
-9.816000000000000072e-03
-9.702999999999999819e-03
-9.575000000000000178e-03
-9.606999999999999221e-03
-9.750999999999999251e-03
-9.825999999999999665e-03
-9.719999999999999474e-03
-9.594999999999999363e-03
-9.596999999999999628e-03
-9.728999999999999801e-03
-9.818000000000000338e-03
-9.728000000000000536e-03
-9.605000000000000690e-03
-9.627999999999999406e-03
-9.769999999999999171e-03
-9.823999999999999400e-03
-9.757000000000000048e-03
-9.702000000000000554e-03
-9.712999999999999412e-03
-9.724000000000000005e-03
-9.674000000000000307e-03
-9.414999999999999758e-03
-9.024000000000000771e-03
-8.739999999999999505e-03
-8.557000000000000370e-03
-8.389000000000000623e-03
-8.451999999999999444e-03
-8.746999999999999567e-03
-9.164000000000000271e-03
-9.577999999999999708e-03
-9.771999999999999437e-03
-9.669999999999999776e-03
-9.516999999999999418e-03
-9.523999999999999480e-03
-9.679000000000000103e-03
-9.773999999999999702e-03
-9.674999999999999573e-03
-9.553000000000000727e-03
-9.577000000000000443e-03
-9.721999999999999739e-03
-9.806000000000000480e-03
-9.712000000000000147e-03
-9.568999999999999381e-03
-9.591999999999999832e-03
-9.724999999999999270e-03
-9.797000000000000153e-03
-9.697000000000000758e-03
-9.582999999999999505e-03
-9.594999999999999363e-03
-9.731000000000000066e-03
-9.806000000000000480e-03
-9.704000000000000820e-03
-9.572000000000000647e-03
-9.589999999999999566e-03
-9.731000000000000066e-03
-9.801999999999999949e-03
-9.698999999999999289e-03
-9.568999999999999381e-03
-9.601999999999999424e-03
-9.728000000000000536e-03
-9.799999999999999684e-03
-9.702000000000000554e-03
-9.582999999999999505e-03
-9.610000000000000486e-03
-9.740000000000000394e-03
-9.795999999999999153e-03
-9.686999999999999431e-03
-9.560000000000000789e-03
-9.580999999999999239e-03
-9.723000000000000739e-03
-9.778999999999999498e-03
-9.664000000000000715e-03
-9.534000000000000807e-03
-9.547999999999999196e-03
-9.690000000000000696e-03
-9.754999999999999782e-03
-9.653999999999999387e-03
-9.528999999999999276e-03
-9.539000000000000604e-03
-9.664999999999999980e-03
-9.726999999999999535e-03
-9.608999999999999486e-03
-9.492999999999999702e-03
-9.528000000000000011e-03
-9.648000000000000326e-03
-9.714000000000000412e-03
-9.612000000000000752e-03
-9.483999999999999375e-03
-9.494000000000000702e-03
-9.624999999999999875e-03
-9.678000000000000838e-03
-9.573999999999999178e-03
-9.447000000000000536e-03
-9.473000000000000517e-03
-9.608999999999999486e-03
-9.671000000000000776e-03
-9.563999999999999585e-03
-9.426999999999999616e-03
-9.431999999999999412e-03
-9.575000000000000178e-03
-9.648000000000000326e-03
-9.540999999999999134e-03
-9.405999999999999431e-03
-9.435000000000000678e-03
-9.603999999999999690e-03
-9.679999999999999369e-03
-9.580999999999999239e-03
-9.466999999999999721e-03
-9.504999999999999560e-03
-9.653000000000000122e-03
-9.737000000000000863e-03
-9.643000000000000529e-03
-9.520000000000000684e-03
-9.563000000000000320e-03
-9.716999999999999943e-03
-9.797999999999999418e-03
-9.688000000000000431e-03
-9.567000000000000851e-03
-9.593000000000000832e-03
-9.737000000000000863e-03
-9.813000000000000542e-03
-9.710999999999999147e-03
-9.591999999999999832e-03
-9.627000000000000141e-03
-9.757999999999999313e-03
-9.815000000000000807e-03
-9.719000000000000208e-03
-9.605999999999999955e-03
-9.625999999999999140e-03
-9.749000000000000721e-03
-9.821999999999999134e-03
-9.724000000000000005e-03
-9.596000000000000363e-03
-9.615000000000000283e-03
-9.747000000000000455e-03
-9.804999999999999480e-03
-9.705999999999999350e-03
-9.582000000000000239e-03
-9.603999999999999690e-03
-9.742000000000000659e-03
-9.813000000000000542e-03
-9.705000000000000085e-03
-9.586000000000000770e-03
-9.610999999999999752e-03
-9.754999999999999782e-03
-9.825000000000000400e-03
-9.721999999999999739e-03
-9.587000000000000036e-03
-9.608999999999999486e-03
-9.735999999999999863e-03
-9.809999999999999276e-03
-9.709999999999999881e-03
-9.586000000000000770e-03
-9.610999999999999752e-03
-9.749999999999999986e-03
-9.823999999999999400e-03
-9.704000000000000820e-03
-9.575000000000000178e-03
-9.613000000000000017e-03
-9.757000000000000048e-03
-9.808000000000000745e-03
-9.714000000000000412e-03
-9.589999999999999566e-03
-9.613000000000000017e-03
-9.750999999999999251e-03
-9.809999999999999276e-03
-9.704000000000000820e-03
-9.580999999999999239e-03
-9.598999999999999894e-03
-9.733999999999999597e-03
-9.811000000000000276e-03
-9.710999999999999147e-03
-9.591999999999999832e-03
-9.624999999999999875e-03
-9.752000000000000252e-03
-9.816999999999999338e-03
-9.705000000000000085e-03
-9.582999999999999505e-03
-9.620000000000000079e-03
-9.763000000000000844e-03
-9.821999999999999134e-03
-9.714000000000000412e-03
-9.584000000000000505e-03
-9.619000000000000813e-03
-9.754999999999999782e-03
-9.828999999999999196e-03
-9.726000000000000270e-03
-9.599999999999999159e-03
-9.612000000000000752e-03
-9.747999999999999721e-03
-9.823000000000000134e-03
-9.712999999999999412e-03
-9.582000000000000239e-03
-9.606999999999999221e-03
-9.750999999999999251e-03
-9.813000000000000542e-03
-9.705999999999999350e-03
-9.591000000000000567e-03
-9.620000000000000079e-03
-9.749000000000000721e-03
-9.821999999999999134e-03
-9.716999999999999943e-03
-9.594999999999999363e-03
-9.612000000000000752e-03
-9.747000000000000455e-03
-9.827999999999999931e-03
-9.723000000000000739e-03
-9.591000000000000567e-03
-9.603000000000000425e-03
-9.714000000000000412e-03
-9.763000000000000844e-03
-9.639999999999999264e-03
-9.511000000000000357e-03
-9.523999999999999480e-03
-9.648000000000000326e-03
-9.690000000000000696e-03
-9.558999999999999789e-03
-9.431000000000000147e-03
-9.464999999999999455e-03
-9.619000000000000813e-03
-9.681999999999999634e-03
-9.575999999999999443e-03
-9.471999999999999517e-03
-9.509000000000000091e-03
-9.638999999999999999e-03
-9.702000000000000554e-03
-9.613999999999999282e-03
-9.534000000000000807e-03
-9.587999999999999301e-03
-9.742999999999999924e-03
-9.813000000000000542e-03
-9.712999999999999412e-03
-9.599999999999999159e-03
-9.636999999999999733e-03
-9.775999999999999968e-03
-9.837000000000000258e-03
-9.737000000000000863e-03
-9.617999999999999813e-03
-9.641000000000000264e-03
-9.780999999999999764e-03
-9.849000000000000116e-03
-9.754000000000000517e-03
-9.629999999999999671e-03
-9.648999999999999591e-03
-9.792999999999999622e-03
-9.856999999999999443e-03
-9.747999999999999721e-03
-9.615000000000000283e-03
-9.653000000000000122e-03
-9.794999999999999887e-03
-9.856000000000000177e-03
-9.789000000000000826e-03
-9.714000000000000412e-03
-9.700999999999999554e-03
-9.733999999999999597e-03
-9.669999999999999776e-03
-9.374000000000000388e-03
-8.975000000000000339e-03
-8.703000000000000666e-03
-8.547000000000000777e-03
-8.475999999999999160e-03
-8.737999999999999240e-03
-9.053000000000000283e-03
-9.417999999999999289e-03
-9.737000000000000863e-03
-9.785000000000000295e-03
-9.622000000000000344e-03
-9.490000000000000172e-03
-9.537999999999999604e-03
-9.695999999999999758e-03
-9.764000000000000110e-03
-9.669000000000000511e-03
-9.549000000000000196e-03
-9.582000000000000239e-03
-9.738999999999999393e-03
-9.794999999999999887e-03
-9.679000000000000103e-03
-9.561000000000000054e-03
-9.598999999999999894e-03
-9.733000000000000332e-03
-9.789000000000000826e-03
-9.679999999999999369e-03
-9.554999999999999258e-03
-9.589000000000000301e-03
-9.737000000000000863e-03
-9.795999999999999153e-03
-9.665999999999999245e-03
-9.540999999999999134e-03
-9.577999999999999708e-03
-9.714000000000000412e-03
-9.769999999999999171e-03
-9.664000000000000715e-03
-9.542999999999999400e-03
-9.558999999999999789e-03
-9.700999999999999554e-03
-9.759000000000000313e-03
-9.657999999999999918e-03
-9.532000000000000542e-03
-9.551000000000000462e-03
-9.688000000000000431e-03
-9.745999999999999455e-03
-9.627999999999999406e-03
-9.499999999999999764e-03
-9.535999999999999338e-03
-9.676999999999999838e-03
-9.733999999999999597e-03
-9.613000000000000017e-03
-9.480999999999999844e-03
-9.516000000000000153e-03
-9.648999999999999591e-03
-9.698999999999999289e-03
-9.579999999999999974e-03
-9.447000000000000536e-03
-9.476999999999999313e-03
-9.613000000000000017e-03
-9.665999999999999245e-03
-9.554999999999999258e-03
-9.423000000000000820e-03
-9.452000000000000332e-03
-9.587999999999999301e-03
-9.643999999999999795e-03
-9.523999999999999480e-03
-9.386999999999999511e-03
-9.414999999999999758e-03
-9.549999999999999462e-03
-9.598999999999999894e-03
-9.478999999999999579e-03
-9.353000000000000203e-03
-9.381999999999999715e-03
-9.520000000000000684e-03
-9.575000000000000178e-03
-9.454000000000000598e-03
-9.327000000000000221e-03
-9.355000000000000468e-03
-9.497000000000000233e-03
-9.561000000000000054e-03
-9.452000000000000332e-03
-9.341999999999999610e-03
-9.379999999999999449e-03
-9.535999999999999338e-03
-9.610000000000000486e-03
-9.514999999999999153e-03
-9.416000000000000758e-03
-9.459999999999999659e-03
-9.610000000000000486e-03
-9.688999999999999696e-03
-9.589000000000000301e-03
-9.476999999999999313e-03
-9.528000000000000011e-03
-9.674000000000000307e-03
-9.738999999999999393e-03
-9.636999999999999733e-03
-9.520000000000000684e-03
-9.558000000000000523e-03
-9.705999999999999350e-03
-9.759999999999999579e-03
-9.657000000000000653e-03
-9.537999999999999604e-03
-9.561999999999999320e-03
-9.707999999999999616e-03
-9.768999999999999906e-03
-9.657999999999999918e-03
-9.523999999999999480e-03
-9.558000000000000523e-03
-9.693000000000000227e-03
-9.754000000000000517e-03
-9.650000000000000591e-03
-9.518000000000000418e-03
-9.553000000000000727e-03
-9.695999999999999758e-03
-9.747999999999999721e-03
-9.634999999999999468e-03
-9.506000000000000560e-03
-9.537999999999999604e-03
-9.671000000000000776e-03
-9.733999999999999597e-03
-9.634000000000000202e-03
-9.513000000000000622e-03
-9.540999999999999134e-03
-9.686000000000000165e-03
-9.742999999999999924e-03
-9.627999999999999406e-03
-9.506000000000000560e-03
-9.547999999999999196e-03
-9.678000000000000838e-03
-9.728000000000000536e-03
-9.627000000000000141e-03
-9.513000000000000622e-03
-9.546999999999999931e-03
-9.683000000000000634e-03
-9.740000000000000394e-03
-9.622999999999999610e-03
-9.502000000000000030e-03
-9.535000000000000073e-03
-9.683999999999999900e-03
-9.740000000000000394e-03
-9.622000000000000344e-03
-9.504999999999999560e-03
-9.542000000000000134e-03
-9.671000000000000776e-03
-9.731999999999999332e-03
-9.629000000000000406e-03
-9.504000000000000295e-03
-9.542000000000000134e-03
-9.691999999999999227e-03
-9.747999999999999721e-03
-9.620999999999999344e-03
-9.494999999999999968e-03
-9.539999999999999869e-03
-9.683000000000000634e-03
-9.738999999999999393e-03
-9.631999999999999937e-03
-9.509000000000000091e-03
-9.546000000000000665e-03
-9.690999999999999961e-03
-9.745999999999999455e-03
-9.625999999999999140e-03
-9.502999999999999295e-03
-9.539000000000000604e-03
-9.672000000000000042e-03
-9.735000000000000597e-03
-9.631999999999999937e-03
-9.506000000000000560e-03
-9.544000000000000400e-03
-9.684999999999999165e-03
-9.738999999999999393e-03
-9.624999999999999875e-03
-9.504999999999999560e-03
-9.547999999999999196e-03
-9.686000000000000165e-03
-9.738999999999999393e-03
-9.631999999999999937e-03
-9.516000000000000153e-03
-9.549999999999999462e-03
-9.688999999999999696e-03
-9.737000000000000863e-03
-9.622000000000000344e-03
-9.497999999999999499e-03
-9.535999999999999338e-03
-9.681999999999999634e-03
-9.749000000000000721e-03
-9.634000000000000202e-03
-9.513000000000000622e-03
-9.544999999999999665e-03
-9.688000000000000431e-03
-9.737000000000000863e-03
-9.620000000000000079e-03
-9.509999999999999357e-03
-9.549000000000000196e-03
-9.684999999999999165e-03
-9.738000000000000128e-03
-9.629000000000000406e-03
-9.509000000000000091e-03
-9.546999999999999931e-03
-9.698000000000000023e-03
-9.750999999999999251e-03
-9.634000000000000202e-03
-9.506000000000000560e-03
-9.540999999999999134e-03
-9.684999999999999165e-03
-9.742999999999999924e-03
-9.629999999999999671e-03
-9.509999999999999357e-03
-9.553999999999999992e-03
-9.698000000000000023e-03
-9.747999999999999721e-03
-9.629999999999999671e-03
-9.513000000000000622e-03
-9.544999999999999665e-03
-9.684999999999999165e-03
-9.745000000000000190e-03
-9.629000000000000406e-03
-9.508000000000000826e-03
-9.544999999999999665e-03
-9.690999999999999961e-03
-9.745000000000000190e-03
-9.622999999999999610e-03
-9.501000000000000764e-03
-9.542000000000000134e-03
-9.690999999999999961e-03
-9.738999999999999393e-03
-9.619000000000000813e-03
-9.504000000000000295e-03
-9.547999999999999196e-03
-9.688000000000000431e-03
-9.731999999999999332e-03
-9.612000000000000752e-03
-9.488999999999999171e-03
-9.540999999999999134e-03
-9.691999999999999227e-03
-9.742999999999999924e-03
-9.629999999999999671e-03
-9.511999999999999622e-03
-9.542999999999999400e-03
-9.679999999999999369e-03
-9.735999999999999863e-03
-9.620000000000000079e-03
-9.506999999999999826e-03
-9.546999999999999931e-03
-9.684999999999999165e-03
-9.740000000000000394e-03
-9.627000000000000141e-03
-9.508000000000000826e-03
-9.546000000000000665e-03
-9.683000000000000634e-03
-9.737000000000000863e-03
-9.620000000000000079e-03
-9.499000000000000499e-03
-9.532000000000000542e-03
-9.664999999999999980e-03
-9.693000000000000227e-03
-9.551000000000000462e-03
-9.423000000000000820e-03
-9.462999999999999190e-03
-9.598999999999999894e-03
-9.648000000000000326e-03
-9.525999999999999746e-03
-9.386999999999999511e-03
-9.428000000000000616e-03
-9.596000000000000363e-03
-9.678000000000000838e-03
-9.563000000000000320e-03
-9.431999999999999412e-03
-9.478999999999999579e-03
-9.622000000000000344e-03
-9.662999999999999715e-03
-9.554999999999999258e-03
-9.462999999999999190e-03
-9.518000000000000418e-03
-9.672999999999999307e-03
-9.728999999999999801e-03
-9.615000000000000283e-03
-9.508000000000000826e-03
-9.556000000000000258e-03
-9.702000000000000554e-03
-9.757000000000000048e-03
-9.641999999999999529e-03
-9.528999999999999276e-03
-9.575999999999999443e-03
-9.717999999999999208e-03
-9.768000000000000640e-03
-9.655999999999999653e-03
-9.537000000000000338e-03
-9.572000000000000647e-03
-9.712000000000000147e-03
-9.768999999999999906e-03
-9.650000000000000591e-03
-9.535000000000000073e-03
-9.577000000000000443e-03
-9.714000000000000412e-03
-9.764999999999999375e-03
-9.665999999999999245e-03
-9.589999999999999566e-03
-9.679000000000000103e-03
-9.787000000000000560e-03
-9.743999999999999190e-03
-9.525000000000000480e-03
-9.209000000000000172e-03
-8.965000000000000746e-03
-8.786000000000000407e-03
-8.524000000000000327e-03
-8.305999999999999148e-03
-8.566999999999999962e-03
-9.013000000000000178e-03
-9.483999999999999375e-03
-9.695999999999999758e-03
-9.549999999999999462e-03
-9.391999999999999307e-03
-9.435999999999999943e-03
-9.594000000000000097e-03
-9.662999999999999715e-03
-9.554999999999999258e-03
-9.445000000000000270e-03
-9.490999999999999437e-03
-9.631999999999999937e-03
-9.688000000000000431e-03
-9.573999999999999178e-03
-9.452000000000000332e-03
-9.494000000000000702e-03
-9.643000000000000529e-03
-9.693000000000000227e-03
-9.575000000000000178e-03
-9.459999999999999659e-03
-9.506999999999999826e-03
-9.643000000000000529e-03
-9.686999999999999431e-03
-9.567000000000000851e-03
-9.450000000000000067e-03
-9.492000000000000437e-03
-9.634000000000000202e-03
-9.684999999999999165e-03
-9.570000000000000381e-03
-9.447000000000000536e-03
-9.482000000000000844e-03
-9.624000000000000610e-03
-9.669000000000000511e-03
-9.546999999999999931e-03
-9.424000000000000085e-03
-9.471999999999999517e-03
-9.610000000000000486e-03
-9.653999999999999387e-03
-9.537000000000000338e-03
-9.428000000000000616e-03
-9.466999999999999721e-03
-9.601999999999999424e-03
-9.646000000000000060e-03
-9.523000000000000215e-03
-9.397000000000000838e-03
-9.443999999999999270e-03
-9.586000000000000770e-03
-9.629999999999999671e-03
-9.501000000000000764e-03
-9.379999999999999449e-03
-9.421999999999999820e-03
-9.558000000000000523e-03
-9.603000000000000425e-03
-9.476000000000000048e-03
-9.341999999999999610e-03
-9.376000000000000653e-03
-9.514999999999999153e-03
-9.560000000000000789e-03
-9.433000000000000412e-03
-9.322000000000000425e-03
-9.357000000000000733e-03
-9.490999999999999437e-03
-9.535000000000000073e-03
-9.405999999999999431e-03
-9.282000000000000320e-03
-9.315000000000000363e-03
-9.457999999999999394e-03
-9.501000000000000764e-03
-9.371000000000000857e-03
-9.256999999999999604e-03
-9.299999999999999239e-03
-9.431999999999999412e-03
-9.473000000000000517e-03
-9.360999999999999530e-03
-9.247000000000000011e-03
-9.296000000000000443e-03
-9.440999999999999739e-03
-9.502000000000000030e-03
-9.390000000000000777e-03
-9.284000000000000585e-03
-9.339999999999999344e-03
-9.499999999999999764e-03
-9.567000000000000851e-03
-9.457999999999999394e-03
-9.355999999999999733e-03
-9.414000000000000493e-03
-9.570000000000000381e-03
-9.636000000000000468e-03
-9.518999999999999684e-03
-9.407000000000000431e-03
-9.464999999999999455e-03
-9.605000000000000690e-03
-9.662000000000000449e-03
-9.542000000000000134e-03
-9.424999999999999351e-03
-9.469999999999999252e-03
-9.615999999999999548e-03
-9.664000000000000715e-03
-9.547999999999999196e-03
-9.431999999999999412e-03
-9.483999999999999375e-03
-9.624999999999999875e-03
-9.671000000000000776e-03
-9.546999999999999931e-03
-9.431999999999999412e-03
-9.480999999999999844e-03
-9.624999999999999875e-03
-9.667000000000000245e-03
-9.539999999999999869e-03
-9.421999999999999820e-03
-9.468000000000000721e-03
-9.613000000000000017e-03
-9.662000000000000449e-03
-9.544999999999999665e-03
-9.431000000000000147e-03
-9.475000000000000783e-03
-9.617999999999999813e-03
-9.658999999999999184e-03
-9.537999999999999604e-03
-9.426999999999999616e-03
-9.478000000000000314e-03
-9.622999999999999610e-03
-9.672999999999999307e-03
-9.553999999999999992e-03
-9.431999999999999412e-03
-9.476999999999999313e-03
-9.622000000000000344e-03
-9.667000000000000245e-03
-9.551999999999999727e-03
-9.440000000000000474e-03
-9.480999999999999844e-03
-9.627999999999999406e-03
-9.679999999999999369e-03
-9.553999999999999992e-03
-9.445000000000000270e-03
-9.495999999999999233e-03
-9.638000000000000733e-03
-9.683000000000000634e-03
-9.560000000000000789e-03
-9.452000000000000332e-03
-9.504000000000000295e-03
-9.643000000000000529e-03
-9.690000000000000696e-03
-9.565999999999999850e-03
-9.447000000000000536e-03
-9.502999999999999295e-03
-9.650000000000000591e-03
-9.688000000000000431e-03
-9.561000000000000054e-03
-9.452999999999999597e-03
-9.506999999999999826e-03
-9.641999999999999529e-03
-9.678000000000000838e-03
-9.561999999999999320e-03
-9.457000000000000128e-03
-9.513999999999999888e-03
-9.657000000000000653e-03
-9.688999999999999696e-03
-9.568000000000000116e-03
-9.457999999999999394e-03
-9.508000000000000826e-03
-9.646000000000000060e-03
-9.690000000000000696e-03
-9.570000000000000381e-03
-9.450999999999999332e-03
-9.494000000000000702e-03
-9.634999999999999468e-03
-9.686000000000000165e-03
-9.565000000000000585e-03
-9.452999999999999597e-03
-9.495999999999999233e-03
-9.639999999999999264e-03
-9.690000000000000696e-03
-9.572000000000000647e-03
-9.461999999999999925e-03
-9.513999999999999888e-03
-9.643999999999999795e-03
-9.676000000000000573e-03
-9.565000000000000585e-03
-9.456000000000000863e-03
-9.504999999999999560e-03
-9.641999999999999529e-03
-9.683999999999999900e-03
-9.565999999999999850e-03
-9.457000000000000128e-03
-9.508000000000000826e-03
-9.648000000000000326e-03
-9.691999999999999227e-03
-9.579999999999999974e-03
-9.468999999999999986e-03
-9.518000000000000418e-03
-9.652000000000000857e-03
-9.690000000000000696e-03
-9.570000000000000381e-03
-9.464000000000000190e-03
-9.509999999999999357e-03
-9.650000000000000591e-03
-9.693000000000000227e-03
-9.572999999999999912e-03
-9.464000000000000190e-03
-9.513999999999999888e-03
-9.657999999999999918e-03
-9.698000000000000023e-03
-9.565999999999999850e-03
-9.457000000000000128e-03
-9.516000000000000153e-03
-9.657999999999999918e-03
-9.697000000000000758e-03
-9.573999999999999178e-03
-9.464999999999999455e-03
-9.504999999999999560e-03
-9.652000000000000857e-03
-9.693000000000000227e-03
-9.572000000000000647e-03
-9.464000000000000190e-03
-9.518000000000000418e-03
-9.660000000000000184e-03
-9.700999999999999554e-03
-9.572999999999999912e-03
-9.466000000000000456e-03
-9.520000000000000684e-03
-9.664000000000000715e-03
-9.704000000000000820e-03
-9.580999999999999239e-03
-9.461000000000000659e-03
-9.509999999999999357e-03
-9.655999999999999653e-03
-9.702999999999999819e-03
-9.572000000000000647e-03
-9.459000000000000394e-03
-9.513000000000000622e-03
-9.655999999999999653e-03
-9.698000000000000023e-03
-9.572000000000000647e-03
-9.468999999999999986e-03
-9.525000000000000480e-03
-9.657999999999999918e-03
-9.686999999999999431e-03
-9.567000000000000851e-03
-9.452000000000000332e-03
-9.499999999999999764e-03
-9.636000000000000468e-03
-9.674000000000000307e-03
-9.551000000000000462e-03
-9.431999999999999412e-03
-9.464999999999999455e-03
-9.587000000000000036e-03
-9.627000000000000141e-03
-9.511000000000000357e-03
-9.391999999999999307e-03
-9.452999999999999597e-03
-9.591999999999999832e-03
-9.617000000000000548e-03
-9.509000000000000091e-03
-9.405999999999999431e-03
-9.459999999999999659e-03
-9.603999999999999690e-03
-9.657000000000000653e-03
-9.547999999999999196e-03
-9.440000000000000474e-03
-9.492999999999999702e-03
-9.627999999999999406e-03
-9.669999999999999776e-03
-9.547999999999999196e-03
-9.443999999999999270e-03
-9.502999999999999295e-03
-9.653999999999999387e-03
-9.695999999999999758e-03
-9.573999999999999178e-03
-9.473000000000000517e-03
-9.525999999999999746e-03
-9.664000000000000715e-03
-9.707000000000000350e-03
-9.584999999999999770e-03
-9.478000000000000314e-03
-9.535000000000000073e-03
-9.674000000000000307e-03
-9.710999999999999147e-03
-9.593000000000000832e-03
-9.487000000000000641e-03
-9.539000000000000604e-03
-9.678000000000000838e-03
-9.712999999999999412e-03
-9.591999999999999832e-03
-9.483000000000000110e-03
-9.549000000000000196e-03
-9.747000000000000455e-03
-9.839999999999999789e-03
-9.664000000000000715e-03
-9.468999999999999986e-03
-9.423000000000000820e-03
-9.360000000000000264e-03
-9.084999999999999326e-03
-8.602999999999999536e-03
-8.163999999999999382e-03
-8.194999999999999160e-03
-8.772000000000000283e-03
-9.190000000000000252e-03
-9.391000000000000042e-03
-9.431999999999999412e-03
-9.459999999999999659e-03
-9.565000000000000585e-03
-9.603999999999999690e-03
-9.490000000000000172e-03
-9.400000000000000369e-03
-9.473000000000000517e-03
-9.619000000000000813e-03
-9.652000000000000857e-03
-9.532999999999999807e-03
-9.433999999999999678e-03
-9.483999999999999375e-03
-9.622999999999999610e-03
-9.660999999999999449e-03
-9.539000000000000604e-03
-9.447000000000000536e-03
-9.504999999999999560e-03
-9.632999999999999202e-03
-9.672000000000000042e-03
-9.546000000000000665e-03
-9.435000000000000678e-03
-9.495999999999999233e-03
-9.648000000000000326e-03
-9.678000000000000838e-03
-9.551000000000000462e-03
-9.440999999999999739e-03
-9.497000000000000233e-03
-9.636000000000000468e-03
-9.667000000000000245e-03
-9.553000000000000727e-03
-9.445999999999999536e-03
-9.494000000000000702e-03
-9.631999999999999937e-03
-9.672999999999999307e-03
-9.539000000000000604e-03
-9.429999999999999147e-03
-9.483999999999999375e-03
-9.615999999999999548e-03
-9.653000000000000122e-03
-9.523999999999999480e-03
-9.412999999999999493e-03
-9.476000000000000048e-03
-9.617999999999999813e-03
-9.636000000000000468e-03
-9.502999999999999295e-03
-9.393999999999999573e-03
-9.450000000000000067e-03
-9.582000000000000239e-03
-9.608000000000000221e-03
-9.475000000000000783e-03
-9.357999999999999999e-03
-9.416000000000000758e-03
-9.558000000000000523e-03
-9.584000000000000505e-03
-9.449000000000000801e-03
-9.339000000000000079e-03
-9.395000000000000573e-03
-9.528000000000000011e-03
-9.544999999999999665e-03
-9.417999999999999289e-03
-9.313000000000000098e-03
-9.369000000000000591e-03
-9.504000000000000295e-03
-9.534000000000000807e-03
-9.395999999999999838e-03
-9.277999999999999789e-03
-9.329000000000000486e-03
-9.461999999999999925e-03
-9.497000000000000233e-03
-9.376999999999999919e-03
-9.265999999999999931e-03
-9.308999999999999567e-03
-9.447000000000000536e-03
-9.485999999999999641e-03
-9.364000000000000795e-03
-9.272999999999999993e-03
-9.350000000000000672e-03
-9.497999999999999499e-03
-9.539999999999999869e-03
-9.426000000000000351e-03
-9.341999999999999610e-03
-9.419000000000000289e-03
-9.568999999999999381e-03
-9.617999999999999813e-03
-9.502000000000000030e-03
-9.400000000000000369e-03
-9.454999999999999863e-03
-9.601000000000000159e-03
-9.643000000000000529e-03
-9.509999999999999357e-03
-9.412000000000000227e-03
-9.480000000000000579e-03
-9.629000000000000406e-03
-9.662000000000000449e-03
-9.530999999999999542e-03
-9.423000000000000820e-03
-9.487000000000000641e-03
-9.631000000000000671e-03
-9.660000000000000184e-03
-9.532000000000000542e-03
-9.429999999999999147e-03
-9.492999999999999702e-03
-9.638000000000000733e-03
-9.665999999999999245e-03
-9.528999999999999276e-03
-9.421000000000000554e-03
-9.483000000000000110e-03
-9.615999999999999548e-03
-9.645000000000000795e-03
-9.518000000000000418e-03
-9.421999999999999820e-03
-9.487000000000000641e-03
-9.622999999999999610e-03
-9.658999999999999184e-03
-9.542999999999999400e-03
-9.435000000000000678e-03
-9.488999999999999171e-03
-9.631000000000000671e-03
-9.665999999999999245e-03
-9.528999999999999276e-03
-9.419999999999999554e-03
-9.485999999999999641e-03
-9.636000000000000468e-03
-9.652000000000000857e-03
-9.513000000000000622e-03
-9.416000000000000758e-03
-9.483999999999999375e-03
-9.634000000000000202e-03
-9.664999999999999980e-03
-9.528000000000000011e-03
-9.419999999999999554e-03
-9.480999999999999844e-03
-9.624999999999999875e-03
-9.657000000000000653e-03
-9.520999999999999949e-03
-9.424999999999999351e-03
-9.494999999999999968e-03
-9.627999999999999406e-03
-9.662000000000000449e-03
-9.539000000000000604e-03
-9.431000000000000147e-03
-9.487999999999999906e-03
-9.636000000000000468e-03
-9.665999999999999245e-03
-9.535000000000000073e-03
-9.435999999999999943e-03
-9.504999999999999560e-03
-9.643000000000000529e-03
-9.665999999999999245e-03
-9.530999999999999542e-03
-9.431000000000000147e-03
-9.501000000000000764e-03
-9.646000000000000060e-03
-9.664000000000000715e-03
-9.539000000000000604e-03
-9.440000000000000474e-03
-9.497000000000000233e-03
-9.631999999999999937e-03
-9.660999999999999449e-03
-9.539000000000000604e-03
-9.443999999999999270e-03
-9.509999999999999357e-03
-9.646000000000000060e-03
-9.672999999999999307e-03
-9.537999999999999604e-03
-9.443000000000000005e-03
-9.516999999999999418e-03
-9.655000000000000387e-03
-9.683000000000000634e-03
-9.544000000000000400e-03
-9.433999999999999678e-03
-9.504999999999999560e-03
-9.660999999999999449e-03
-9.695999999999999758e-03
-9.558999999999999789e-03
-9.443000000000000005e-03
-9.502999999999999295e-03
-9.648999999999999591e-03
-9.684999999999999165e-03
-9.560000000000000789e-03
-9.464999999999999455e-03
-9.525000000000000480e-03
-9.657000000000000653e-03
-9.688000000000000431e-03
-9.553000000000000727e-03
-9.445000000000000270e-03
-9.511000000000000357e-03
-9.657999999999999918e-03
-9.691999999999999227e-03
-9.553999999999999992e-03
-9.447999999999999801e-03
-9.509999999999999357e-03
-9.650999999999999857e-03
-9.688999999999999696e-03
-9.568000000000000116e-03
-9.468999999999999986e-03
-9.520000000000000684e-03
-9.665999999999999245e-03
-9.693000000000000227e-03
-9.558999999999999789e-03
-9.457999999999999394e-03
-9.523999999999999480e-03
-9.664000000000000715e-03
-9.686000000000000165e-03
-9.560000000000000789e-03
-9.461999999999999925e-03
-9.535999999999999338e-03
-9.676000000000000573e-03
-9.698999999999999289e-03
-9.563999999999999585e-03
-9.454000000000000598e-03
-9.518999999999999684e-03
-9.658999999999999184e-03
-9.683999999999999900e-03
-9.560000000000000789e-03
-9.452000000000000332e-03
-9.490000000000000172e-03
-9.615000000000000283e-03
-9.631000000000000671e-03
-9.492999999999999702e-03
-9.384999999999999246e-03
-9.447999999999999801e-03
-9.591999999999999832e-03
-9.603000000000000425e-03
-9.447000000000000536e-03
-9.355000000000000468e-03
-9.426999999999999616e-03
-9.575999999999999443e-03
-9.613999999999999282e-03
-9.508000000000000826e-03
-9.435000000000000678e-03
-9.508000000000000826e-03
-9.627999999999999406e-03
-9.643000000000000529e-03
-9.532000000000000542e-03
-9.461000000000000659e-03
-9.535000000000000073e-03
-9.669000000000000511e-03
-9.686000000000000165e-03
-9.554999999999999258e-03
-9.469999999999999252e-03
-9.553000000000000727e-03
-9.707999999999999616e-03
-9.740000000000000394e-03
-9.601999999999999424e-03
-9.494000000000000702e-03
-9.551000000000000462e-03
-9.683999999999999900e-03
-9.704000000000000820e-03
-9.579000000000000709e-03
-9.492999999999999702e-03
-9.561999999999999320e-03
-9.700999999999999554e-03
-9.705999999999999350e-03
-9.575000000000000178e-03
-9.478999999999999579e-03
-9.544999999999999665e-03
-9.684999999999999165e-03
-9.712000000000000147e-03
-9.596000000000000363e-03
-9.565000000000000585e-03
-9.669000000000000511e-03
-9.719999999999999474e-03
-9.636000000000000468e-03
-9.348000000000000406e-03
-9.029000000000000567e-03
-8.809000000000000857e-03
-8.633999999999999314e-03
-8.323999999999999802e-03
-8.219000000000000611e-03
-8.500999999999999876e-03
-8.975999999999999604e-03
-9.428999999999999881e-03
-9.629000000000000406e-03
-9.535000000000000073e-03
-9.407999999999999696e-03
-9.450999999999999332e-03
-9.612000000000000752e-03
-9.646000000000000060e-03
-9.523000000000000215e-03
-9.426000000000000351e-03
-9.495999999999999233e-03
-9.648999999999999591e-03
-9.672000000000000042e-03
-9.521999999999999215e-03
-9.433000000000000412e-03
-9.525000000000000480e-03
-9.655999999999999653e-03
-9.683999999999999900e-03
-9.542000000000000134e-03
-9.445000000000000270e-03
-9.511999999999999622e-03
-9.655000000000000387e-03
-9.690999999999999961e-03
-9.542000000000000134e-03
-9.442000000000000740e-03
-9.525999999999999746e-03
-9.665999999999999245e-03
-9.693999999999999492e-03
-9.553000000000000727e-03
-9.452999999999999597e-03
-9.544999999999999665e-03
-9.683999999999999900e-03
-9.693000000000000227e-03
-9.561999999999999320e-03
-9.468999999999999986e-03
-9.535000000000000073e-03
-9.657000000000000653e-03
-9.655000000000000387e-03
-9.551000000000000462e-03
-9.462999999999999190e-03
-9.516999999999999418e-03
-9.646000000000000060e-03
-9.664000000000000715e-03
-9.528999999999999276e-03
-9.426999999999999616e-03
-9.499999999999999764e-03
-9.636999999999999733e-03
-9.641000000000000264e-03
-9.492999999999999702e-03
-9.414999999999999758e-03
-9.480000000000000579e-03
-9.617999999999999813e-03
-9.629000000000000406e-03
-9.490000000000000172e-03
-9.379999999999999449e-03
-9.452000000000000332e-03
-9.598999999999999894e-03
-9.612000000000000752e-03
-9.464999999999999455e-03
-9.357999999999999999e-03
-9.414000000000000493e-03
-9.565000000000000585e-03
-9.593000000000000832e-03
-9.445000000000000270e-03
-9.348000000000000406e-03
-9.397000000000000838e-03
-9.534000000000000807e-03
-9.561999999999999320e-03
-9.433999999999999678e-03
-9.334999999999999548e-03
-9.390000000000000777e-03
-9.514999999999999153e-03
-9.513999999999999888e-03
-9.379000000000000184e-03
-9.303000000000000505e-03
-9.381000000000000449e-03
-9.535999999999999338e-03
-9.535999999999999338e-03
-9.398999999999999369e-03
-9.327999999999999486e-03
-9.397000000000000838e-03
-9.556000000000000258e-03
-9.603999999999999690e-03
-9.469999999999999252e-03
-9.377999999999999184e-03
-9.454000000000000598e-03
-9.594999999999999363e-03
-9.643999999999999795e-03
-9.528000000000000011e-03
-9.440999999999999739e-03
-9.518999999999999684e-03
-9.657000000000000653e-03
-9.672000000000000042e-03
-9.539000000000000604e-03
-9.435000000000000678e-03
-9.511999999999999622e-03
-9.660000000000000184e-03
-9.683999999999999900e-03
-9.523000000000000215e-03
-9.431999999999999412e-03
-9.530999999999999542e-03
-9.660000000000000184e-03
-9.667000000000000245e-03
-9.539000000000000604e-03
-9.442000000000000740e-03
-9.520999999999999949e-03
-9.655000000000000387e-03
-9.674999999999999573e-03
-9.535999999999999338e-03
-9.438000000000000209e-03
-9.537000000000000338e-03
-9.683000000000000634e-03
-9.681000000000000369e-03
-9.537999999999999604e-03
-9.449000000000000801e-03
-9.535000000000000073e-03
-9.679999999999999369e-03
-9.674000000000000307e-03
-9.528000000000000011e-03
-9.449000000000000801e-03
-9.532000000000000542e-03
-9.684999999999999165e-03
-9.723000000000000739e-03
-9.573999999999999178e-03
-9.440999999999999739e-03
-9.518000000000000418e-03
-9.688999999999999696e-03
-9.688999999999999696e-03
-9.546999999999999931e-03
-9.482000000000000844e-03
-9.521999999999999215e-03
-9.638999999999999999e-03
-9.688000000000000431e-03
-9.582000000000000239e-03
-9.487999999999999906e-03
-9.546000000000000665e-03
-9.678000000000000838e-03
-9.707000000000000350e-03
-9.554999999999999258e-03
-9.490999999999999437e-03
-9.577999999999999708e-03
-9.690000000000000696e-03
-9.709999999999999881e-03
-9.593000000000000832e-03
-9.509999999999999357e-03
-9.549999999999999462e-03
-9.679000000000000103e-03
-9.705999999999999350e-03
-9.584999999999999770e-03
-9.471999999999999517e-03
-9.558000000000000523e-03
-9.743999999999999190e-03
-9.756000000000000782e-03
-9.556000000000000258e-03
-9.457000000000000128e-03
-9.567000000000000851e-03
-9.705999999999999350e-03
-9.731999999999999332e-03
-9.568000000000000116e-03
-9.478999999999999579e-03
-9.572000000000000647e-03
-9.691999999999999227e-03
-9.726000000000000270e-03
-9.612000000000000752e-03
-9.518999999999999684e-03
-9.598000000000000628e-03
-9.712000000000000147e-03
-9.716999999999999943e-03
-9.587000000000000036e-03
-9.511999999999999622e-03
-9.603000000000000425e-03
-9.724000000000000005e-03
-9.726999999999999535e-03
-9.563999999999999585e-03
-9.461000000000000659e-03
-9.556999999999999523e-03
-9.738000000000000128e-03
-9.773000000000000437e-03
-9.615999999999999548e-03
-9.513999999999999888e-03
-9.613999999999999282e-03
-9.730000000000000801e-03
-9.733000000000000332e-03
-9.570000000000000381e-03
-9.485000000000000375e-03
-9.570000000000000381e-03
-9.731999999999999332e-03
-9.756000000000000782e-03
-9.598000000000000628e-03
-9.513999999999999888e-03
-9.577999999999999708e-03
-9.700999999999999554e-03
-9.709999999999999881e-03
-9.546000000000000665e-03
-9.461999999999999925e-03
-9.549000000000000196e-03
-9.662000000000000449e-03
-9.667999999999999511e-03
-9.501000000000000764e-03
-9.381999999999999715e-03
-9.440999999999999739e-03
-9.636999999999999733e-03
-9.660999999999999449e-03
-9.502999999999999295e-03
-9.428000000000000616e-03
-9.563999999999999585e-03
-9.709999999999999881e-03
-9.688999999999999696e-03
-9.537999999999999604e-03
-9.499000000000000499e-03
-9.579000000000000709e-03
-9.740999999999999659e-03
-9.792999999999999622e-03
-9.658999999999999184e-03
-9.521999999999999215e-03
-9.612000000000000752e-03
-9.804999999999999480e-03
-9.806000000000000480e-03
-9.638999999999999999e-03
-9.568000000000000116e-03
-9.660000000000000184e-03
-9.752999999999999517e-03
-9.773999999999999702e-03
-9.648000000000000326e-03
-9.584000000000000505e-03
-9.674000000000000307e-03
-9.820999999999999869e-03
-9.778000000000000233e-03
-9.606999999999999221e-03
-9.570000000000000381e-03
-9.697000000000000758e-03
-9.820000000000000603e-03
-9.794999999999999887e-03
-9.631999999999999937e-03
-9.608999999999999486e-03
-9.759999999999999579e-03
-9.860999999999999974e-03
-9.747000000000000455e-03
-9.475000000000000783e-03
-9.216000000000000233e-03
-9.044999999999999221e-03
-8.888999999999999332e-03
-8.562000000000000166e-03
-8.222000000000000142e-03
-8.375999999999999765e-03
-8.862999999999999351e-03
-9.344999999999999141e-03
-9.596999999999999628e-03
-9.587000000000000036e-03
-9.528999999999999276e-03
-9.603000000000000425e-03
-9.737000000000000863e-03
-9.719000000000000208e-03
-9.601000000000000159e-03
-9.568999999999999381e-03
-9.645000000000000795e-03
-9.745000000000000190e-03
-9.759000000000000313e-03
-9.634999999999999468e-03
-9.546999999999999931e-03
-9.620000000000000079e-03
-9.776999999999999233e-03
-9.792000000000000356e-03
-9.652000000000000857e-03
-9.565999999999999850e-03
-9.636999999999999733e-03
-9.773999999999999702e-03
-9.790000000000000091e-03
-9.646000000000000060e-03
-9.556999999999999523e-03
-9.639999999999999264e-03
-9.795999999999999153e-03
-9.815000000000000807e-03
-9.658999999999999184e-03
-9.540999999999999134e-03
-9.629999999999999671e-03
-9.780000000000000498e-03
-9.809999999999999276e-03
-9.641999999999999529e-03
-9.532000000000000542e-03
-9.632999999999999202e-03
-9.768999999999999906e-03
-9.783999999999999295e-03
-9.641999999999999529e-03
-9.542000000000000134e-03
-9.601000000000000159e-03
-9.745999999999999455e-03
-9.761999999999999844e-03
-9.632999999999999202e-03
-9.530000000000000276e-03
-9.619000000000000813e-03
-9.735000000000000597e-03
-9.731999999999999332e-03
-9.594999999999999363e-03
-9.523000000000000215e-03
-9.624999999999999875e-03
-9.731000000000000066e-03
-9.728000000000000536e-03
-9.587999999999999301e-03
-9.492000000000000437e-03
-9.580999999999999239e-03
-9.712000000000000147e-03
-9.695000000000000492e-03
-9.532000000000000542e-03
-9.452000000000000332e-03
-9.539999999999999869e-03
-9.688999999999999696e-03
-9.683999999999999900e-03
-9.532999999999999807e-03
-9.447999999999999801e-03
-9.530999999999999542e-03
-9.664000000000000715e-03
-9.671000000000000776e-03
-9.508000000000000826e-03
-9.403999999999999165e-03
-9.494000000000000702e-03
-9.629000000000000406e-03
-9.639999999999999264e-03
-9.504999999999999560e-03
-9.440999999999999739e-03
-9.511999999999999622e-03
-9.646000000000000060e-03
-9.660000000000000184e-03
-9.518000000000000418e-03
-9.449000000000000801e-03
-9.556999999999999523e-03
-9.698000000000000023e-03
-9.719999999999999474e-03
-9.599999999999999159e-03
-9.525000000000000480e-03
-9.636999999999999733e-03
-9.764000000000000110e-03
-9.761999999999999844e-03
-9.638000000000000733e-03
-9.577999999999999708e-03
-9.669000000000000511e-03
-9.787999999999999826e-03
-9.787000000000000560e-03
-9.667999999999999511e-03
-9.591000000000000567e-03
-9.676999999999999838e-03
-9.823000000000000134e-03
-9.825000000000000400e-03
-9.667999999999999511e-03
-9.589000000000000301e-03
-9.674999999999999573e-03
-9.818000000000000338e-03
-9.823000000000000134e-03
-9.672999999999999307e-03
-9.577999999999999708e-03
-9.658999999999999184e-03
-9.808000000000000745e-03
-9.813999999999999807e-03
-9.671000000000000776e-03
-9.598999999999999894e-03
-9.693999999999999492e-03
-9.813999999999999807e-03
-9.804000000000000214e-03
-9.665999999999999245e-03
-9.598000000000000628e-03
-9.683000000000000634e-03
-9.825999999999999665e-03
-9.815000000000000807e-03
-9.672000000000000042e-03
-9.589000000000000301e-03
-9.667000000000000245e-03
-9.811999999999999542e-03
-9.825999999999999665e-03
-9.688999999999999696e-03
-9.610999999999999752e-03
-9.700000000000000289e-03
-9.832999999999999727e-03
-9.834000000000000727e-03
-9.683999999999999900e-03
-9.612000000000000752e-03
-9.705999999999999350e-03
-9.839000000000000523e-03
-9.832000000000000461e-03
-9.702999999999999819e-03
-9.620999999999999344e-03
-9.700000000000000289e-03
-9.828999999999999196e-03
-9.832999999999999727e-03
-9.697000000000000758e-03
-9.622000000000000344e-03
-9.717999999999999208e-03
-9.844999999999999585e-03
-9.839999999999999789e-03
-9.705000000000000085e-03
-9.615999999999999548e-03
-9.693999999999999492e-03
-9.842000000000000054e-03
-9.846999999999999850e-03
-9.724000000000000005e-03
-9.641000000000000264e-03
-9.709000000000000616e-03
-9.842000000000000054e-03
-9.856999999999999443e-03
-9.721999999999999739e-03
-9.634999999999999468e-03
-9.721999999999999739e-03
-9.860000000000000708e-03
-9.853000000000000647e-03
-9.707999999999999616e-03
-9.643000000000000529e-03
-9.737000000000000863e-03
-9.870999999999999566e-03
-9.854999999999999177e-03
-9.716999999999999943e-03
-9.636000000000000468e-03
-9.721000000000000474e-03
-9.860000000000000708e-03
-9.865999999999999770e-03
-9.716000000000000678e-03
-9.641999999999999529e-03
-9.730000000000000801e-03
-9.858000000000000443e-03
-9.844999999999999585e-03
-9.697000000000000758e-03
-9.624999999999999875e-03
-9.728000000000000536e-03
-9.861999999999999239e-03
-9.861999999999999239e-03
-9.726000000000000270e-03
-9.641000000000000264e-03
-9.723000000000000739e-03
-9.849000000000000116e-03
-9.851000000000000381e-03
-9.723000000000000739e-03
-9.645000000000000795e-03
-9.735999999999999863e-03
-9.861999999999999239e-03
-9.860000000000000708e-03
-9.717999999999999208e-03
-9.629999999999999671e-03
-9.719000000000000208e-03
-9.865000000000000505e-03
-9.868999999999999301e-03
-9.705000000000000085e-03
-9.636999999999999733e-03
-9.726000000000000270e-03
-9.865000000000000505e-03
-9.863999999999999505e-03
-9.716000000000000678e-03
-9.632999999999999202e-03
-9.716999999999999943e-03
-9.834999999999999992e-03
-9.823000000000000134e-03
-9.665999999999999245e-03
-9.580999999999999239e-03
-9.665999999999999245e-03
-9.780000000000000498e-03
-9.780000000000000498e-03
-9.638999999999999999e-03
-9.565999999999999850e-03
-9.660999999999999449e-03
-9.801999999999999949e-03
-9.797999999999999418e-03
-9.664000000000000715e-03
-9.587999999999999301e-03
-9.686000000000000165e-03
-9.835999999999999258e-03
-9.834000000000000727e-03
-9.681999999999999634e-03
-9.598999999999999894e-03
-9.700000000000000289e-03
-9.851999999999999647e-03
-9.844000000000000319e-03
-9.702999999999999819e-03
-9.629000000000000406e-03
-9.717999999999999208e-03
-9.858000000000000443e-03
-9.856999999999999443e-03
-9.707999999999999616e-03
-9.638999999999999999e-03
-9.731999999999999332e-03
-9.854999999999999177e-03
-9.856999999999999443e-03
-9.716000000000000678e-03
-9.636000000000000468e-03
-9.723000000000000739e-03
-9.849999999999999381e-03
-9.854999999999999177e-03
-9.721000000000000474e-03
-9.652000000000000857e-03
-9.749999999999999986e-03
-9.891000000000000486e-03
-9.922000000000000264e-03
-9.816000000000000072e-03
-9.679999999999999369e-03
-9.657000000000000653e-03
-9.662999999999999715e-03
-9.450999999999999332e-03
-9.020000000000000240e-03
-8.649999999999999703e-03
-8.449999999999999178e-03
-8.543000000000000246e-03
-8.947999999999999357e-03
-9.199000000000000579e-03
-9.431999999999999412e-03
-9.650999999999999857e-03
-9.764000000000000110e-03
-9.733000000000000332e-03
-9.593000000000000832e-03
-9.535000000000000073e-03
-9.646999999999999326e-03
-9.785000000000000295e-03
-9.794000000000000622e-03
-9.655999999999999653e-03
-9.591000000000000567e-03
-9.679000000000000103e-03
-9.808000000000000745e-03
-9.809999999999999276e-03
-9.672000000000000042e-03
-9.589999999999999566e-03
-9.676999999999999838e-03
-9.815000000000000807e-03
-9.815000000000000807e-03
-9.667000000000000245e-03
-9.591000000000000567e-03
-9.674000000000000307e-03
-9.809999999999999276e-03
-9.792999999999999622e-03
-9.645000000000000795e-03
-9.565999999999999850e-03
-9.653999999999999387e-03
-9.782000000000000764e-03
-9.773000000000000437e-03
-9.629999999999999671e-03
-9.553999999999999992e-03
-9.645000000000000795e-03
-9.776999999999999233e-03
-9.764000000000000110e-03
-9.625999999999999140e-03
-9.553000000000000727e-03
-9.638000000000000733e-03
-9.771000000000000171e-03
-9.759000000000000313e-03
-9.610999999999999752e-03
-9.534000000000000807e-03
-9.617000000000000548e-03
-9.754000000000000517e-03
-9.740000000000000394e-03
-9.589000000000000301e-03
-9.504000000000000295e-03
-9.593000000000000832e-03
-9.712999999999999412e-03
-9.695000000000000492e-03
-9.563000000000000320e-03
-9.480999999999999844e-03
-9.573999999999999178e-03
-9.707999999999999616e-03
-9.681999999999999634e-03
-9.530000000000000276e-03
-9.452999999999999597e-03
-9.527000000000000746e-03
-9.652000000000000857e-03
-9.643000000000000529e-03
-9.490999999999999437e-03
-9.402999999999999900e-03
-9.488999999999999171e-03
-9.617000000000000548e-03
-9.608999999999999486e-03
-9.461000000000000659e-03
-9.376999999999999919e-03
-9.468999999999999986e-03
-9.594000000000000097e-03
-9.577999999999999708e-03
-9.431000000000000147e-03
-9.350999999999999937e-03
-9.447999999999999801e-03
-9.580999999999999239e-03
-9.579000000000000709e-03
-9.440999999999999739e-03
-9.383999999999999980e-03
-9.490999999999999437e-03
-9.641999999999999529e-03
-9.650000000000000591e-03
-9.523000000000000215e-03
-9.471999999999999517e-03
-9.572000000000000647e-03
-9.714999999999999677e-03
-9.728000000000000536e-03
-9.599999999999999159e-03
-9.534000000000000807e-03
-9.627999999999999406e-03
-9.766000000000000375e-03
-9.769999999999999171e-03
-9.624000000000000610e-03
-9.551000000000000462e-03
-9.657000000000000653e-03
-9.797999999999999418e-03
-9.787000000000000560e-03
-9.650000000000000591e-03
-9.572000000000000647e-03
-9.669999999999999776e-03
-9.794999999999999887e-03
-9.775999999999999968e-03
-9.648000000000000326e-03
-9.579000000000000709e-03
-9.671000000000000776e-03
-9.801999999999999949e-03
-9.782000000000000764e-03
-9.641999999999999529e-03
-9.572999999999999912e-03
-9.664999999999999980e-03
-9.792000000000000356e-03
-9.783000000000000029e-03
-9.643000000000000529e-03
-9.575999999999999443e-03
-9.660999999999999449e-03
-9.783000000000000029e-03
-9.775999999999999968e-03
-9.638999999999999999e-03
-9.565000000000000585e-03
-9.655000000000000387e-03
-9.790000000000000091e-03
-9.787999999999999826e-03
-9.632999999999999202e-03
-9.570999999999999647e-03
-9.665999999999999245e-03
-9.797000000000000153e-03
-9.785000000000000295e-03
-9.645000000000000795e-03
-9.565999999999999850e-03
-9.660999999999999449e-03
-9.801999999999999949e-03
-9.783999999999999295e-03
-9.643000000000000529e-03
-9.577999999999999708e-03
-9.667999999999999511e-03
-9.804000000000000214e-03
-9.790999999999999356e-03
-9.641000000000000264e-03
-9.570999999999999647e-03
-9.665999999999999245e-03
-9.802999999999999214e-03
-9.794999999999999887e-03
-9.658999999999999184e-03
-9.584000000000000505e-03
-9.665999999999999245e-03
-9.801999999999999949e-03
-9.795999999999999153e-03
-9.650000000000000591e-03
-9.584999999999999770e-03
-9.688999999999999696e-03
-9.813000000000000542e-03
-9.799000000000000418e-03
-9.652000000000000857e-03
-9.589999999999999566e-03
-9.695999999999999758e-03
-9.823000000000000134e-03
-9.804000000000000214e-03
-9.657999999999999918e-03
-9.593000000000000832e-03
-9.684999999999999165e-03
-9.816999999999999338e-03
-9.806000000000000480e-03
-9.662999999999999715e-03
-9.594999999999999363e-03
-9.688000000000000431e-03
-9.816999999999999338e-03
-9.806999999999999745e-03
-9.662000000000000449e-03
-9.591999999999999832e-03
-9.688000000000000431e-03
-9.811000000000000276e-03
-9.801999999999999949e-03
-9.662999999999999715e-03
-9.594000000000000097e-03
-9.693000000000000227e-03
-9.827000000000000665e-03
-9.813999999999999807e-03
-9.664999999999999980e-03
-9.593000000000000832e-03
-9.691999999999999227e-03
-9.820000000000000603e-03
-9.808000000000000745e-03
-9.662999999999999715e-03
-9.591000000000000567e-03
-9.688000000000000431e-03
-9.815000000000000807e-03
-9.801999999999999949e-03
-9.664000000000000715e-03
-9.598999999999999894e-03
-9.690999999999999961e-03
-9.825000000000000400e-03
-9.801999999999999949e-03
-9.658999999999999184e-03
-9.594000000000000097e-03
-9.698000000000000023e-03
-9.828999999999999196e-03
-9.809999999999999276e-03
-9.665999999999999245e-03
-9.599999999999999159e-03
-9.695999999999999758e-03
-9.823000000000000134e-03
-9.809000000000000011e-03
-9.667000000000000245e-03
-9.603000000000000425e-03
-9.700000000000000289e-03
-9.827000000000000665e-03
-9.802999999999999214e-03
-9.653000000000000122e-03
-9.589999999999999566e-03
-9.700000000000000289e-03
-9.828999999999999196e-03
-9.813000000000000542e-03
-9.660000000000000184e-03
-9.584999999999999770e-03
-9.678000000000000838e-03
-9.806000000000000480e-03
-9.792000000000000356e-03
-9.638999999999999999e-03
-9.544999999999999665e-03
-9.634999999999999468e-03
-9.771999999999999437e-03
-9.749000000000000721e-03
-9.601999999999999424e-03
-9.539999999999999869e-03
-9.646999999999999326e-03
-9.783999999999999295e-03
-9.766000000000000375e-03
-9.615000000000000283e-03
-9.551999999999999727e-03
-9.653999999999999387e-03
-9.790999999999999356e-03
-9.789000000000000826e-03
-9.662000000000000449e-03
-9.598999999999999894e-03
-9.683000000000000634e-03
-9.813999999999999807e-03
-9.806000000000000480e-03
-9.660999999999999449e-03
-9.599999999999999159e-03
-9.709999999999999881e-03
-9.848000000000000850e-03
-9.825999999999999665e-03
-9.676999999999999838e-03
-9.619000000000000813e-03
-9.724000000000000005e-03
-9.849000000000000116e-03
-9.815000000000000807e-03
-9.671000000000000776e-03
-9.627999999999999406e-03
-9.724999999999999270e-03
-9.849000000000000116e-03
-9.827000000000000665e-03
-9.683999999999999900e-03
-9.617000000000000548e-03
-9.705999999999999350e-03
-9.839999999999999789e-03
-9.837000000000000258e-03
-9.716999999999999943e-03
-9.705000000000000085e-03
-9.839000000000000523e-03
-9.891000000000000486e-03
-9.787000000000000560e-03
-9.499000000000000499e-03
-9.197999999999999579e-03
-8.978999999999999135e-03
-8.791999999999999468e-03
-8.498000000000000345e-03
-8.479000000000000425e-03
-8.866999999999999882e-03
-9.329999999999999752e-03
-9.731000000000000066e-03
-9.768999999999999906e-03
-9.584000000000000505e-03
-9.511000000000000357e-03
-9.622999999999999610e-03
-9.757000000000000048e-03
-9.735999999999999863e-03
-9.615999999999999548e-03
-9.568000000000000116e-03
-9.672000000000000042e-03
-9.797000000000000153e-03
-9.785999999999999560e-03
-9.643999999999999795e-03
-9.573999999999999178e-03
-9.672000000000000042e-03
-9.799999999999999684e-03
-9.783999999999999295e-03
-9.634999999999999468e-03
-9.575000000000000178e-03
-9.674999999999999573e-03
-9.789000000000000826e-03
-9.763000000000000844e-03
-9.624999999999999875e-03
-9.568000000000000116e-03
-9.671000000000000776e-03
-9.799000000000000418e-03
-9.773000000000000437e-03
-9.627999999999999406e-03
-9.568000000000000116e-03
-9.667000000000000245e-03
-9.787000000000000560e-03
-9.766999999999999640e-03
-9.620000000000000079e-03
-9.553000000000000727e-03
-9.653000000000000122e-03
-9.787000000000000560e-03
-9.763000000000000844e-03
-9.610000000000000486e-03
-9.539000000000000604e-03
-9.646999999999999326e-03
-9.778000000000000233e-03
-9.743999999999999190e-03
-9.589000000000000301e-03
-9.523999999999999480e-03
-9.619000000000000813e-03
-9.742999999999999924e-03
-9.719999999999999474e-03
-9.567000000000000851e-03
-9.490000000000000172e-03
-9.582999999999999505e-03
-9.709999999999999881e-03
-9.683999999999999900e-03
-9.535999999999999338e-03
-9.475000000000000783e-03
-9.572999999999999912e-03
-9.697000000000000758e-03
-9.662000000000000449e-03
-9.497999999999999499e-03
-9.431000000000000147e-03
-9.525000000000000480e-03
-9.641999999999999529e-03
-9.622000000000000344e-03
-9.473000000000000517e-03
-9.409000000000000696e-03
-9.509000000000000091e-03
-9.627999999999999406e-03
-9.591999999999999832e-03
-9.442000000000000740e-03
-9.374999999999999653e-03
-9.471999999999999517e-03
-9.601999999999999424e-03
-9.572999999999999912e-03
-9.419999999999999554e-03
-9.365000000000000061e-03
-9.476000000000000048e-03
-9.612000000000000752e-03
-9.605999999999999955e-03
-9.469999999999999252e-03
-9.412999999999999493e-03
-9.535000000000000073e-03
-9.676999999999999838e-03
-9.664999999999999980e-03
-9.532999999999999807e-03
-9.490000000000000172e-03
-9.601999999999999424e-03
-9.738000000000000128e-03
-9.721999999999999739e-03
-9.582999999999999505e-03
-9.532999999999999807e-03
-9.652000000000000857e-03
-9.785999999999999560e-03
-9.752000000000000252e-03
-9.612000000000000752e-03
-9.558000000000000523e-03
-9.657999999999999918e-03
-9.790000000000000091e-03
-9.768000000000000640e-03
-9.619000000000000813e-03
-9.558000000000000523e-03
-9.664999999999999980e-03
-9.790000000000000091e-03
-9.757999999999999313e-03
-9.610999999999999752e-03
-9.556000000000000258e-03
-9.660000000000000184e-03
-9.778000000000000233e-03
-9.745999999999999455e-03
-9.598000000000000628e-03
-9.549000000000000196e-03
-9.657999999999999918e-03
-9.783000000000000029e-03
-9.749999999999999986e-03
-9.603999999999999690e-03
-9.544000000000000400e-03
-9.655000000000000387e-03
-9.783000000000000029e-03
-9.754999999999999782e-03
-9.605999999999999955e-03
-9.551000000000000462e-03
-9.657000000000000653e-03
-9.778999999999999498e-03
-9.749999999999999986e-03
-9.608000000000000221e-03
-9.556000000000000258e-03
-9.664999999999999980e-03
-9.783999999999999295e-03
-9.754000000000000517e-03
-9.615000000000000283e-03
-9.561999999999999320e-03
-9.660000000000000184e-03
-9.790000000000000091e-03
-9.771000000000000171e-03
-9.632999999999999202e-03
-9.570000000000000381e-03
-9.667999999999999511e-03
-9.795999999999999153e-03
-9.766000000000000375e-03
-9.625999999999999140e-03
-9.565999999999999850e-03
-9.662999999999999715e-03
-9.794999999999999887e-03
-9.773000000000000437e-03
-9.622000000000000344e-03
-9.561000000000000054e-03
-9.664000000000000715e-03
-9.792999999999999622e-03
-9.763000000000000844e-03
-9.617999999999999813e-03
-9.570999999999999647e-03
-9.676999999999999838e-03
-9.795999999999999153e-03
-9.764999999999999375e-03
-9.615000000000000283e-03
-9.560000000000000789e-03
-9.671000000000000776e-03
-9.801999999999999949e-03
-9.764999999999999375e-03
-9.619000000000000813e-03
-9.563000000000000320e-03
-9.667000000000000245e-03
-9.790999999999999356e-03
-9.764999999999999375e-03
-9.622999999999999610e-03
-9.565999999999999850e-03
-9.667000000000000245e-03
-9.794000000000000622e-03
-9.764999999999999375e-03
-9.620000000000000079e-03
-9.563999999999999585e-03
-9.665999999999999245e-03
-9.790000000000000091e-03
-9.761999999999999844e-03
-9.612000000000000752e-03
-9.553999999999999992e-03
-9.664999999999999980e-03
-9.785999999999999560e-03
-9.738999999999999393e-03
-9.593000000000000832e-03
-9.572999999999999912e-03
-9.710999999999999147e-03
-9.809999999999999276e-03
-9.728000000000000536e-03
-9.570999999999999647e-03
-9.553999999999999992e-03
-9.698999999999999289e-03
-9.799000000000000418e-03
-9.726000000000000270e-03
-9.572999999999999912e-03
-9.553000000000000727e-03
-9.695000000000000492e-03
-9.801000000000000684e-03
-9.721999999999999739e-03
-9.561000000000000054e-03
-9.542999999999999400e-03
-9.693999999999999492e-03
-9.808000000000000745e-03
-9.723000000000000739e-03
-9.558999999999999789e-03
-9.542000000000000134e-03
-9.686000000000000165e-03
-9.790999999999999356e-03
-9.710999999999999147e-03
-9.558000000000000523e-03
-9.546000000000000665e-03
-9.695000000000000492e-03
-9.799999999999999684e-03
-9.716000000000000678e-03
-9.549999999999999462e-03
-9.530000000000000276e-03
-9.676999999999999838e-03
-9.773999999999999702e-03
-9.676000000000000573e-03
-9.513000000000000622e-03
-9.502000000000000030e-03
-9.636000000000000468e-03
-9.742000000000000659e-03
-9.669999999999999776e-03
-9.513000000000000622e-03
-9.497000000000000233e-03
-9.653000000000000122e-03
-9.764000000000000110e-03
-9.683000000000000634e-03
-9.527000000000000746e-03
-9.528999999999999276e-03
-9.702999999999999819e-03
-9.813000000000000542e-03
-9.709999999999999881e-03
-9.547999999999999196e-03
-9.542999999999999400e-03
-9.700000000000000289e-03
-9.811999999999999542e-03
-9.728999999999999801e-03
-9.580999999999999239e-03
-9.580999999999999239e-03
-9.726000000000000270e-03
-9.827000000000000665e-03
-9.749000000000000721e-03
-9.589999999999999566e-03
-9.579999999999999974e-03
-9.726999999999999535e-03
-9.827000000000000665e-03
-9.742000000000000659e-03
-9.584999999999999770e-03
-9.573999999999999178e-03
-9.721000000000000474e-03
-9.825999999999999665e-03
-9.749999999999999986e-03
-9.587999999999999301e-03
-9.572000000000000647e-03
-9.726999999999999535e-03
-9.858999999999999708e-03
-9.844000000000000319e-03
-9.707000000000000350e-03
-9.622000000000000344e-03
-9.697000000000000758e-03
-9.658999999999999184e-03
-9.329000000000000486e-03
-8.843999999999999431e-03
-8.482999999999999222e-03
-8.347000000000000253e-03
-8.618000000000000660e-03
-8.958000000000000684e-03
-9.152000000000000413e-03
-9.438000000000000209e-03
-9.669999999999999776e-03
-9.730000000000000801e-03
-9.620999999999999344e-03
-9.464999999999999455e-03
-9.471000000000000252e-03
-9.634999999999999468e-03
-9.750999999999999251e-03
-9.667999999999999511e-03
-9.521999999999999215e-03
-9.513000000000000622e-03
-9.664000000000000715e-03
-9.771999999999999437e-03
-9.681999999999999634e-03
-9.520999999999999949e-03
-9.514999999999999153e-03
-9.662999999999999715e-03
-9.761999999999999844e-03
-9.676999999999999838e-03
-9.520000000000000684e-03
-9.511999999999999622e-03
-9.664000000000000715e-03
-9.761999999999999844e-03
-9.669999999999999776e-03
-9.506999999999999826e-03
-9.502000000000000030e-03
-9.664000000000000715e-03
-9.757999999999999313e-03
-9.664999999999999980e-03
-9.509000000000000091e-03
-9.504000000000000295e-03
-9.655000000000000387e-03
-9.757999999999999313e-03
-9.674999999999999573e-03
-9.502999999999999295e-03
-9.494000000000000702e-03
-9.648999999999999591e-03
-9.752000000000000252e-03
-9.658999999999999184e-03
-9.492000000000000437e-03
-9.494000000000000702e-03
-9.653000000000000122e-03
-9.750999999999999251e-03
-9.660000000000000184e-03
-9.497000000000000233e-03
-9.490000000000000172e-03
-9.629000000000000406e-03
-9.721999999999999739e-03
-9.638000000000000733e-03
-9.476000000000000048e-03
-9.471999999999999517e-03
-9.613000000000000017e-03
-9.702999999999999819e-03
-9.605000000000000690e-03
-9.452999999999999597e-03
-9.452000000000000332e-03
-9.594999999999999363e-03
-9.683999999999999900e-03
-9.586000000000000770e-03
-9.421000000000000554e-03
-9.409000000000000696e-03
-9.549999999999999462e-03
-9.653000000000000122e-03
-9.558999999999999789e-03
-9.400000000000000369e-03
-9.388999999999999777e-03
-9.525999999999999746e-03
-9.617000000000000548e-03
-9.525999999999999746e-03
-9.367999999999999591e-03
-9.367999999999999591e-03
-9.527000000000000746e-03
-9.619000000000000813e-03
-9.530999999999999542e-03
-9.376999999999999919e-03
-9.379000000000000184e-03
-9.535999999999999338e-03
-9.646000000000000060e-03
-9.582999999999999505e-03
-9.440000000000000474e-03
-9.447999999999999801e-03
-9.608999999999999486e-03
-9.716999999999999943e-03
-9.641999999999999529e-03
-9.506000000000000560e-03
-9.516999999999999418e-03
-9.688000000000000431e-03
-9.787999999999999826e-03
-9.705000000000000085e-03
-9.539000000000000604e-03
-9.537000000000000338e-03
-9.702999999999999819e-03
-9.806999999999999745e-03
-9.717999999999999208e-03
-9.561999999999999320e-03
-9.558999999999999789e-03
-9.710999999999999147e-03
-9.811999999999999542e-03
-9.724000000000000005e-03
-9.568000000000000116e-03
-9.561999999999999320e-03
-9.712999999999999412e-03
-9.816999999999999338e-03
-9.728999999999999801e-03
-9.572999999999999912e-03
-9.570000000000000381e-03
-9.707000000000000350e-03
-9.806000000000000480e-03
-9.712999999999999412e-03
-9.561000000000000054e-03
-9.568999999999999381e-03
-9.721000000000000474e-03
-9.813999999999999807e-03
-9.721999999999999739e-03
-9.568999999999999381e-03
-9.573999999999999178e-03
-9.728999999999999801e-03
-9.823999999999999400e-03
-9.733000000000000332e-03
-9.579000000000000709e-03
-9.579999999999999974e-03
-9.716999999999999943e-03
-9.815000000000000807e-03
-9.721000000000000474e-03
-9.573999999999999178e-03
-9.568000000000000116e-03
-9.712000000000000147e-03
-9.799999999999999684e-03
-9.710999999999999147e-03
-9.568999999999999381e-03
-9.580999999999999239e-03
-9.742000000000000659e-03
-9.844000000000000319e-03
-9.745999999999999455e-03
-9.579999999999999974e-03
-9.593000000000000832e-03
-9.750999999999999251e-03
-9.849000000000000116e-03
-9.756000000000000782e-03
-9.584000000000000505e-03
-9.582000000000000239e-03
-9.733999999999999597e-03
-9.823000000000000134e-03
-9.724000000000000005e-03
-9.582000000000000239e-03
-9.596999999999999628e-03
-9.752000000000000252e-03
-9.842999999999999319e-03
-9.756000000000000782e-03
-9.608000000000000221e-03
-9.601999999999999424e-03
-9.749000000000000721e-03
-9.839999999999999789e-03
-9.759999999999999579e-03
-9.610999999999999752e-03
-9.620000000000000079e-03
-9.766999999999999640e-03
-9.868999999999999301e-03
-9.764000000000000110e-03
-9.608999999999999486e-03
-9.610000000000000486e-03
-9.756000000000000782e-03
-9.861999999999999239e-03
-9.775000000000000702e-03
-9.617999999999999813e-03
-9.622000000000000344e-03
-9.785000000000000295e-03
-9.875999999999999363e-03
-9.776999999999999233e-03
-9.627999999999999406e-03
-9.638000000000000733e-03
-9.799000000000000418e-03
-9.882000000000000159e-03
-9.778999999999999498e-03
-9.624999999999999875e-03
-9.634999999999999468e-03
-9.783000000000000029e-03
-9.861999999999999239e-03
-9.769999999999999171e-03
-9.612000000000000752e-03
-9.605000000000000690e-03
-9.754999999999999782e-03
-9.853000000000000647e-03
-9.766999999999999640e-03
-9.617999999999999813e-03
-9.632999999999999202e-03
-9.795999999999999153e-03
-9.891000000000000486e-03
-9.785999999999999560e-03
-9.624000000000000610e-03
-9.641000000000000264e-03
-9.806000000000000480e-03
-9.896999999999999548e-03
-9.789000000000000826e-03
-9.634000000000000202e-03
-9.631000000000000671e-03
-9.764000000000000110e-03
-9.830999999999999461e-03
-9.719999999999999474e-03
-9.568000000000000116e-03
-9.573999999999999178e-03
-9.726000000000000270e-03
-9.799999999999999684e-03
-9.688000000000000431e-03
-9.528000000000000011e-03
-9.542999999999999400e-03
-9.705000000000000085e-03
-9.804000000000000214e-03
-9.710999999999999147e-03
-9.573999999999999178e-03
-9.598999999999999894e-03
-9.764999999999999375e-03
-9.863000000000000239e-03
-9.742000000000000659e-03
-9.596999999999999628e-03
-9.622999999999999610e-03
-9.783000000000000029e-03
-9.877000000000000363e-03
-9.773000000000000437e-03
-9.629000000000000406e-03
-9.657999999999999918e-03
-9.815000000000000807e-03
-9.908000000000000140e-03
-9.816999999999999338e-03
-9.674999999999999573e-03
-9.664999999999999980e-03
-9.809999999999999276e-03
-9.891000000000000486e-03
-9.806000000000000480e-03
-9.655000000000000387e-03
-9.660000000000000184e-03
-9.832999999999999727e-03
-9.910999999999999671e-03
-9.801000000000000684e-03
-9.653999999999999387e-03
-9.653999999999999387e-03
-9.806000000000000480e-03
-9.905000000000000610e-03
-9.842999999999999319e-03
-9.759999999999999579e-03
-9.783000000000000029e-03
-9.827999999999999931e-03
-9.795999999999999153e-03
-9.556999999999999523e-03
-9.185999999999999721e-03
-8.918999999999999845e-03
-8.760999999999999691e-03
-8.529999999999999388e-03
-8.524000000000000327e-03
-8.765000000000000221e-03
-9.157000000000000209e-03
-9.598000000000000628e-03
-9.834000000000000727e-03
-9.759000000000000313e-03
-9.603000000000000425e-03
-9.594000000000000097e-03
-9.742999999999999924e-03
-9.844999999999999585e-03
-9.750999999999999251e-03
-9.603999999999999690e-03
-9.619000000000000813e-03
-9.766000000000000375e-03
-9.861999999999999239e-03
-9.745000000000000190e-03
-9.584999999999999770e-03
-9.601000000000000159e-03
-9.764999999999999375e-03
-9.868999999999999301e-03
-9.763000000000000844e-03
-9.617999999999999813e-03
-9.641000000000000264e-03
-9.792999999999999622e-03
-9.870000000000000301e-03
-9.776999999999999233e-03
-9.629999999999999671e-03
-9.629999999999999671e-03
-9.775999999999999968e-03
-9.868999999999999301e-03
-9.780000000000000498e-03
-9.615999999999999548e-03
-9.629999999999999671e-03
-9.773000000000000437e-03
-9.861999999999999239e-03
-9.761000000000000579e-03
-9.613999999999999282e-03
-9.629000000000000406e-03
-9.795999999999999153e-03
-9.872000000000000566e-03
-9.768999999999999906e-03
-9.606999999999999221e-03
-9.612000000000000752e-03
-9.773999999999999702e-03
-9.853000000000000647e-03
-9.735000000000000597e-03
-9.589999999999999566e-03
-9.575999999999999443e-03
-9.742999999999999924e-03
-9.825000000000000400e-03
-9.714999999999999677e-03
-9.575999999999999443e-03
-9.587999999999999301e-03
-9.754000000000000517e-03
-9.830000000000000196e-03
-9.704000000000000820e-03
-9.528999999999999276e-03
-9.544000000000000400e-03
-9.721000000000000474e-03
-9.806000000000000480e-03
-9.690999999999999961e-03
-9.535000000000000073e-03
-9.563999999999999585e-03
-9.704000000000000820e-03
-9.778999999999999498e-03
-9.650999999999999857e-03
-9.487999999999999906e-03
-9.501000000000000764e-03
-9.669000000000000511e-03
-9.735999999999999863e-03
-9.617999999999999813e-03
-9.436999999999999209e-03
-9.462999999999999190e-03
-9.650999999999999857e-03
-9.731000000000000066e-03
-9.606999999999999221e-03
-9.462999999999999190e-03
-9.499000000000000499e-03
-9.641999999999999529e-03
-9.714999999999999677e-03
-9.624999999999999875e-03
-9.487000000000000641e-03
-9.511999999999999622e-03
-9.664000000000000715e-03
-9.747999999999999721e-03
-9.683999999999999900e-03
-9.547999999999999196e-03
-9.589999999999999566e-03
-9.775999999999999968e-03
-9.839000000000000523e-03
-9.714999999999999677e-03
-9.568999999999999381e-03
-9.610000000000000486e-03
-9.783000000000000029e-03
-9.898999999999999813e-03
-9.789000000000000826e-03
-9.601999999999999424e-03
-9.605000000000000690e-03
-9.775999999999999968e-03
-9.867000000000000770e-03
-9.766999999999999640e-03
-9.613999999999999282e-03
-9.632999999999999202e-03
-9.785999999999999560e-03
-9.856000000000000177e-03
-9.773000000000000437e-03
-9.617999999999999813e-03
-9.622000000000000344e-03
-9.782000000000000764e-03
-9.854999999999999177e-03
-9.745999999999999455e-03
-9.608999999999999486e-03
-9.638999999999999999e-03
-9.787999999999999826e-03
-9.868999999999999301e-03
-9.776999999999999233e-03
-9.610999999999999752e-03
-9.629000000000000406e-03
-9.782000000000000764e-03
-9.880999999999999159e-03
-9.768999999999999906e-03
-9.612000000000000752e-03
-9.632999999999999202e-03
-9.799999999999999684e-03
-9.870000000000000301e-03
-9.752000000000000252e-03
-9.641000000000000264e-03
-9.681000000000000369e-03
-9.825999999999999665e-03
-9.905000000000000610e-03
-9.801000000000000684e-03
-9.669999999999999776e-03
-9.686999999999999431e-03
-9.816999999999999338e-03
-9.889000000000000221e-03
-9.785000000000000295e-03
-9.650999999999999857e-03
-9.693000000000000227e-03
-9.861999999999999239e-03
-9.924000000000000529e-03
-9.802999999999999214e-03
-9.627000000000000141e-03
-9.669000000000000511e-03
-9.842000000000000054e-03
-9.898000000000000548e-03
-9.785999999999999560e-03
-9.634000000000000202e-03
-9.674000000000000307e-03
-9.841000000000000789e-03
-9.924000000000000529e-03
-9.823999999999999400e-03
-9.669999999999999776e-03
-9.686000000000000165e-03
-9.858000000000000443e-03
-9.941000000000000184e-03
-9.827000000000000665e-03
-9.686000000000000165e-03
-9.726000000000000270e-03
-9.868999999999999301e-03
-9.919999999999999998e-03
-9.825000000000000400e-03
-9.669000000000000511e-03
-9.690000000000000696e-03
-9.863999999999999505e-03
-9.945000000000000714e-03
-9.837000000000000258e-03
-9.693000000000000227e-03
-9.719000000000000208e-03
-9.887999999999999221e-03
-9.965999999999999165e-03
-9.846999999999999850e-03
-9.716000000000000678e-03
-9.693000000000000227e-03
-9.848000000000000850e-03
-9.943999999999999714e-03
-9.860000000000000708e-03
-9.700999999999999554e-03
-9.742000000000000659e-03
-9.870000000000000301e-03
-9.922999999999999529e-03
-9.825999999999999665e-03
-9.714999999999999677e-03
-9.763000000000000844e-03
-9.903999999999999609e-03
-9.941999999999999449e-03
-9.821999999999999134e-03
-9.667999999999999511e-03
-9.679999999999999369e-03
-9.841000000000000789e-03
-9.912999999999999937e-03
-9.795999999999999153e-03
-9.643000000000000529e-03
